5996.22311	1.70828
5994.16961	1.72391
5992.11611	1.73403
5990.06261	1.74265
5988.00911	1.74242
5985.95561	1.72671
5983.90211	1.70861
5981.84860	1.69536
5979.79510	1.69763
5977.74160	1.71975
5975.68810	1.73543
5973.63460	1.73497
5971.58110	1.74071
5969.52760	1.75122
5967.47410	1.74504
5965.42060	1.72788
5963.36710	1.72729
5961.31359	1.73930
5959.26009	1.74359
5957.20659	1.73691
5955.15309	1.72195
5953.09959	1.71145
5951.04609	1.71819
5948.99259	1.73533
5946.93909	1.73701
5944.88559	1.71811
5942.83208	1.70684
5940.77858	1.70997
5938.72508	1.71548
5936.67158	1.72133
5934.61808	1.72684
5932.56458	1.73235
5930.51108	1.73836
5928.45758	1.74407
5926.40408	1.74778
5924.35058	1.74409
5922.29707	1.73316
5920.24357	1.72882
5918.19007	1.73273
5916.13657	1.73260
5914.08307	1.73409
5912.02957	1.74166
5909.97607	1.74654
5907.92257	1.74587
5905.86907	1.74725
5903.81556	1.75809
5901.76206	1.75835
5899.70856	1.73174
5897.65506	1.71227
5895.60156	1.71842
5893.54806	1.72898
5891.49456	1.72992
5889.44106	1.72288
5887.38756	1.72224
5885.33405	1.73265
5883.28055	1.74080
5881.22705	1.73731
5879.17355	1.73197
5877.12005	1.73363
5875.06655	1.73278
5873.01305	1.73252
5870.95955	1.73793
5868.90605	1.73330
5866.85255	1.72758
5864.79904	1.73716
5862.74554	1.75493
5860.69204	1.76694
5858.63854	1.76598
5856.58504	1.76331
5854.53154	1.76444
5852.47804	1.76744
5850.42454	1.77334
5848.37104	1.77482
5846.31753	1.77212
5844.26403	1.76800
5842.21053	1.75804
5840.15703	1.74654
5838.10353	1.74776
5836.05003	1.75905
5833.99653	1.76272
5831.94303	1.75596
5829.88953	1.75002
5827.83602	1.74967
5825.78252	1.75163
5823.72902	1.76001
5821.67552	1.77717
5819.62202	1.79097
5817.56852	1.78864
5815.51502	1.77841
5813.46152	1.77141
5811.40802	1.76450
5809.35452	1.76389
5807.30101	1.76918
5805.24751	1.77068
5803.19401	1.77309
5801.14051	1.77795
5799.08701	1.78522
5797.03351	1.79622
5794.98001	1.79868
5792.92651	1.79112
5790.87301	1.78053
5788.81950	1.77683
5786.76600	1.78412
5784.71250	1.78649
5782.65900	1.78691
5780.60550	1.79709
5778.55200	1.80149
5776.49850	1.78907
5774.44500	1.77836
5772.39150	1.77627
5770.33800	1.77049
5768.28449	1.76722
5766.23099	1.76906
5764.17749	1.76652
5762.12399	1.77051
5760.07049	1.78587
5758.01699	1.79098
5755.96349	1.78070
5753.90999	1.76873
5751.85649	1.75957
5749.80298	1.75790
5747.74948	1.76292
5745.69598	1.76597
5743.64248	1.76590
5741.58898	1.76835
5739.53548	1.77532
5737.48198	1.77537
5735.42848	1.76702
5733.37498	1.76025
5731.32147	1.75164
5729.26797	1.75126
5727.21447	1.76335
5725.16097	1.77202
5723.10747	1.77623
5721.05397	1.77321
5719.00047	1.76218
5716.94697	1.76047
5714.89347	1.77444
5712.83997	1.78231
5710.78646	1.76402
5708.73296	1.73963
5706.67946	1.73164
5704.62596	1.73726
5702.57246	1.75105
5700.51896	1.76565
5698.46546	1.77053
5696.41196	1.77544
5694.35846	1.78649
5692.30495	1.78444
5690.25145	1.76509
5688.19795	1.74812
5686.14445	1.74089
5684.09095	1.74379
5682.03745	1.75753
5679.98395	1.77055
5677.93045	1.77329
5675.87695	1.77473
5673.82345	1.77696
5671.76994	1.77208
5669.71644	1.76376
5667.66294	1.76216
5665.60944	1.76749
5663.55594	1.76924
5661.50244	1.76065
5659.44894	1.74686
5657.39544	1.74353
5655.34194	1.75420
5653.28843	1.76221
5651.23493	1.76031
5649.18143	1.76246
5647.12793	1.76838
5645.07443	1.76152
5643.02093	1.74857
5640.96743	1.75098
5638.91393	1.76277
5636.86043	1.76694
5634.80692	1.76805
5632.75342	1.77160
5630.69992	1.77364
5628.64642	1.77572
5626.59292	1.77585
5624.53942	1.76831
5622.48592	1.75698
5620.43242	1.75195
5618.37892	1.75660
5616.32542	1.76941
5614.27191	1.78252
5612.21841	1.78238
5610.16491	1.77543
5608.11141	1.77425
5606.05791	1.77572
5604.00441	1.76862
5601.95091	1.75067
5599.89741	1.73848
5597.84391	1.74631
5595.79040	1.76450
5593.73690	1.77478
5591.68340	1.77654
5589.62990	1.78013
5587.57640	1.78067
5585.52290	1.76600
5583.46940	1.74163
5581.41590	1.73288
5579.36240	1.74660
5577.30889	1.76043
5575.25539	1.76364
5573.20189	1.76602
5571.14839	1.77162
5569.09489	1.77139
5567.04139	1.76220
5564.98789	1.75316
5562.93439	1.75395
5560.88089	1.76431
5558.82739	1.76999
5556.77388	1.76738
5554.72038	1.76790
5552.66688	1.76742
5550.61338	1.75628
5548.55988	1.74996
5546.50638	1.75908
5544.45288	1.76883
5542.39938	1.77265
5540.34588	1.77463
5538.29237	1.76998
5536.23887	1.75593
5534.18537	1.74411
5532.13187	1.74158
5530.07837	1.74428
5528.02487	1.74978
5525.97137	1.75147
5523.91787	1.74654
5521.86437	1.74023
5519.81087	1.74118
5517.75736	1.75393
5515.70386	1.76702
5513.65036	1.76784
5511.59686	1.75875
5509.54336	1.75393
5507.48986	1.75621
5505.43636	1.75264
5503.38286	1.74697
5501.32936	1.75183
5499.27585	1.76035
5497.22235	1.75843
5495.16885	1.74933
5493.11535	1.74695
5491.06185	1.75250
5489.00835	1.76052
5486.95485	1.76504
5484.90135	1.75767
5482.84785	1.74121
5480.79434	1.72700
5478.74084	1.72998
5476.68734	1.74970
5474.63384	1.76153
5472.58034	1.75749
5470.52684	1.75251
5468.47334	1.75105
5466.41984	1.74792
5464.36634	1.74270
5462.31284	1.74309
5460.25933	1.74916
5458.20583	1.75450
5456.15233	1.75677
5454.09883	1.75447
5452.04533	1.75173
5449.99183	1.75824
5447.93833	1.76645
5445.88483	1.76457
5443.83133	1.75915
5441.77782	1.75944
5439.72432	1.76016
5437.67082	1.75188
5435.61732	1.74579
5433.56382	1.75147
5431.51032	1.75542
5429.45682	1.74874
5427.40332	1.74410
5425.34982	1.74902
5423.29631	1.75259
5421.24281	1.74969
5419.18931	1.74655
5417.13581	1.74909
5415.08231	1.75067
5413.02881	1.74773
5410.97531	1.75266
5408.92181	1.76346
5406.86831	1.76652
5404.81481	1.76140
5402.76130	1.75850
5400.70780	1.76070
5398.65430	1.75921
5396.60080	1.75217
5394.54730	1.74444
5392.49380	1.74037
5390.44030	1.74372
5388.38680	1.74594
5386.33330	1.74044
5384.27979	1.73804
5382.22629	1.74185
5380.17279	1.74504
5378.11929	1.74803
5376.06579	1.75052
5374.01229	1.75081
5371.95879	1.74788
5369.90529	1.74522
5367.85179	1.74818
5365.79829	1.75049
5363.74478	1.74757
5361.69128	1.74914
5359.63778	1.75267
5357.58428	1.75022
5355.53078	1.74985
5353.47728	1.75628
5351.42378	1.75977
5349.37028	1.75474
5347.31678	1.74970
5345.26327	1.75353
5343.20977	1.76247
5341.15627	1.77080
5339.10277	1.77822
5337.04927	1.77276
5334.99577	1.75603
5332.94227	1.75066
5330.88877	1.75692
5328.83527	1.75543
5326.78176	1.74792
5324.72826	1.75280
5322.67476	1.76482
5320.62126	1.76963
5318.56776	1.76436
5316.51426	1.75795
5314.46076	1.76228
5312.40726	1.76969
5310.35376	1.77229
5308.30026	1.77449
5306.24675	1.77729
5304.19325	1.78449
5302.13975	1.79881
5300.08625	1.80359
5298.03275	1.79134
5295.97925	1.78352
5293.92575	1.78148
5291.87225	1.77469
5289.81875	1.77063
5287.76524	1.77393
5285.71174	1.78103
5283.65824	1.78493
5281.60474	1.77934
5279.55124	1.77421
5277.49774	1.78124
5275.44424	1.79130
5273.39074	1.79392
5271.33724	1.79267
5269.28374	1.79251
5267.23023	1.79243
5265.17673	1.79068
5263.12323	1.78869
5261.06973	1.79060
5259.01623	1.79782
5256.96273	1.80483
5254.90923	1.80611
5252.85573	1.80810
5250.80223	1.81277
5248.74872	1.80996
5246.69522	1.80419
5244.64172	1.80608
5242.58822	1.81527
5240.53472	1.82423
5238.48122	1.82840
5236.42772	1.83165
5234.37422	1.83343
5232.32072	1.83166
5230.26721	1.82965
5228.21371	1.82763
5226.16021	1.82682
5224.10671	1.83141
5222.05321	1.83946
5219.99971	1.83633
5217.94621	1.82686
5215.89271	1.83178
5213.83921	1.84324
5211.78571	1.84313
5209.73220	1.83249
5207.67870	1.82233
5205.62520	1.82399
5203.57170	1.83292
5201.51820	1.83664
5199.46470	1.84138
5197.41120	1.85263
5195.35770	1.85764
5193.30420	1.86007
5191.25069	1.86325
5189.19719	1.85691
5187.14369	1.85224
5185.09019	1.85272
5183.03669	1.84657
5180.98319	1.83999
5178.92969	1.84003
5176.87619	1.84559
5174.82269	1.85300
5172.76918	1.85482
5170.71568	1.85451
5168.66218	1.85514
5166.60868	1.85451
5164.55518	1.85584
5162.50168	1.86042
5160.44818	1.86344
5158.39468	1.86188
5156.34118	1.85816
5154.28768	1.85566
5152.23417	1.85619
5150.18067	1.85497
5148.12717	1.84563
5146.07367	1.83696
5144.02017	1.83875
5141.96667	1.84350
5139.91317	1.84233
5137.85967	1.84544
5135.80617	1.85526
5133.75266	1.85737
5131.69916	1.85503
5129.64566	1.85397
5127.59216	1.84996
5125.53866	1.84751
5123.48516	1.84765
5121.43166	1.84602
5119.37816	1.84379
5117.32466	1.83974
5115.27116	1.83684
5113.21765	1.83851
5111.16415	1.83926
5109.11065	1.84328
5107.05715	1.85278
5105.00365	1.86014
5102.95015	1.86050
5100.89665	1.85335
5098.84315	1.84905
5096.78965	1.85219
5094.73614	1.85065
5092.68264	1.84281
5090.62914	1.84221
5088.57564	1.84951
5086.52214	1.85282
5084.46864	1.85369
5082.41514	1.85638
5080.36164	1.85850
5078.30814	1.86077
5076.25463	1.85809
5074.20113	1.84811
5072.14763	1.84216
5070.09413	1.84581
5068.04063	1.85146
5065.98713	1.85166
5063.93363	1.84481
5061.88013	1.83706
5059.82663	1.83788
5057.77313	1.84258
5055.71962	1.83886
5053.66612	1.83072
5051.61262	1.82596
5049.55912	1.82398
5047.50562	1.82677
5045.45212	1.83513
5043.39862	1.84429
5041.34512	1.84759
5039.29162	1.84024
5037.23811	1.82905
5035.18461	1.82423
5033.13111	1.82791
5031.07761	1.83465
5029.02411	1.83574
5026.97061	1.83307
5024.91711	1.83311
5022.86361	1.83539
5020.81011	1.83886
5018.75661	1.84092
5016.70310	1.83556
5014.64960	1.82906
5012.59610	1.83181
5010.54260	1.83623
5008.48910	1.83337
5006.43560	1.82773
5004.38210	1.82445
5002.32860	1.82454
5000.27510	1.82694
4998.22159	1.83057
4996.16809	1.83671
4994.11459	1.83910
4992.06109	1.83506
4990.00759	1.83442
4987.95409	1.83513
4985.90059	1.82713
4983.84709	1.81592
4981.79359	1.81186
4979.74008	1.81520
4977.68658	1.82079
4975.63308	1.82579
4973.57958	1.82693
4971.52608	1.82264
4969.47258	1.81805
4967.41908	1.81854
4965.36558	1.82265
4963.31208	1.82888
4961.25858	1.83385
4959.20507	1.82749
4957.15157	1.81558
4955.09807	1.81426
4953.04457	1.81926
4950.99107	1.82070
4948.93757	1.82451
4946.88407	1.83012
4944.83057	1.82849
4942.77707	1.82446
4940.72356	1.82517
4938.67006	1.82885
4936.61656	1.83413
4934.56306	1.83653
4932.50956	1.83167
4930.45606	1.82420
4928.40256	1.82109
4926.34906	1.82498
4924.29556	1.83381
4922.24205	1.83996
4920.18855	1.83592
4918.13505	1.82796
4916.08155	1.82374
4914.02805	1.82059
4911.97455	1.82084
4909.92105	1.83035
4907.86755	1.84073
4905.81405	1.83824
4903.76055	1.83227
4901.70704	1.83370
4899.65354	1.83071
4897.60004	1.81846
4895.54654	1.81193
4893.49304	1.81870
4891.43954	1.82851
4889.38604	1.83540
4887.33254	1.84197
4885.27904	1.84707
4883.22553	1.84576
4881.17203	1.83976
4879.11853	1.83434
4877.06503	1.83008
4875.01153	1.82686
4872.95803	1.82729
4870.90453	1.83403
4868.85103	1.84152
4866.79753	1.84456
4864.74403	1.84445
4862.69052	1.84324
4860.63702	1.84400
4858.58352	1.84569
4856.53002	1.84611
4854.47652	1.84405
4852.42302	1.84270
4850.36952	1.84233
4848.31602	1.83840
4846.26252	1.83490
4844.20901	1.83632
4842.15551	1.83957
4840.10201	1.84405
4838.04851	1.85128
4835.99501	1.85494
4833.94151	1.85242
4831.88801	1.84900
4829.83451	1.84588
4827.78101	1.84470
4825.72750	1.84638
4823.67400	1.84911
4821.62050	1.85380
4819.56700	1.85894
4817.51350	1.85918
4815.46000	1.85686
4813.40650	1.85564
4811.35300	1.85133
4809.29950	1.84376
4807.24600	1.84176
4805.19249	1.84791
4803.13899	1.85211
4801.08549	1.84878
4799.03199	1.84510
4796.97849	1.84656
4794.92499	1.85196
4792.87149	1.85616
4790.81799	1.85570
4788.76449	1.85244
4786.71098	1.84986
4784.65748	1.84953
4782.60398	1.85181
4780.55048	1.85566
4778.49698	1.85786
4776.44348	1.85792
4774.38998	1.85686
4772.33648	1.85431
4770.28298	1.85231
4768.22947	1.85275
4766.17597	1.85167
4764.12247	1.84971
4762.06897	1.85380
4760.01547	1.85778
4757.96197	1.85394
4755.90847	1.85000
4753.85497	1.85109
4751.80147	1.85739
4749.74797	1.86851
4747.69446	1.87528
4745.64096	1.86972
4743.58746	1.85851
4741.53396	1.85389
4739.48046	1.85927
4737.42696	1.86549
4735.37346	1.86520
4733.31996	1.86431
4731.26646	1.86673
4729.21295	1.86599
4727.15945	1.86010
4725.10595	1.85995
4723.05245	1.86574
4720.99895	1.86508
4718.94545	1.85874
4716.89195	1.85130
4714.83845	1.84712
4712.78495	1.85050
4710.73145	1.85624
4708.67794	1.85811
4706.62444	1.85845
4704.57094	1.85987
4702.51744	1.85691
4700.46394	1.85009
4698.41044	1.84658
4696.35694	1.84871
4694.30344	1.85552
4692.24994	1.86506
4690.19643	1.87168
4688.14293	1.86913
4686.08943	1.86069
4684.03593	1.85362
4681.98243	1.84963
4679.92893	1.84926
4677.87543	1.85336
4675.82193	1.85900
4673.76843	1.86017
4671.71492	1.85258
4669.66142	1.84289
4667.60792	1.84015
4665.55442	1.84201
4663.50092	1.84452
4661.44742	1.84926
4659.39392	1.85504
4657.34042	1.85854
4655.28692	1.85958
4653.23342	1.85679
4651.17991	1.85282
4649.12641	1.85485
4647.07291	1.85785
4645.01941	1.85532
4642.96591	1.85395
4640.91241	1.85570
4638.85891	1.85727
4636.80541	1.85848
4634.75191	1.85754
4632.69840	1.85497
4630.64490	1.85098
4628.59140	1.84607
4626.53790	1.84482
4624.48440	1.84849
4622.43090	1.85321
4620.37740	1.85413
4618.32390	1.84966
4616.27040	1.84574
4614.21690	1.84907
4612.16339	1.85260
4610.10989	1.84758
4608.05639	1.84097
4606.00289	1.83996
4603.94939	1.84179
4601.89589	1.84296
4599.84239	1.84235
4597.78889	1.83776
4595.73539	1.83310
4593.68188	1.83436
4591.62838	1.83972
4589.57488	1.84713
4587.52138	1.85359
4585.46788	1.85480
4583.41438	1.85168
4581.36088	1.84957
4579.30738	1.85045
4577.25388	1.84951
4575.20037	1.84557
4573.14687	1.84354
4571.09337	1.84396
4569.03987	1.84217
4566.98637	1.83857
4564.93287	1.83964
4562.87937	1.84572
4560.82587	1.84774
4558.77237	1.84628
4556.71887	1.84983
4554.66536	1.85284
4552.61186	1.84876
4550.55836	1.84632
4548.50486	1.84741
4546.45136	1.84476
4544.39786	1.83966
4542.34436	1.83637
4540.29086	1.83757
4538.23736	1.84193
4536.18385	1.84421
4534.13035	1.84159
4532.07685	1.83712
4530.02335	1.83865
4527.96985	1.84497
4525.91635	1.84808
4523.86285	1.84611
4521.80935	1.84159
4519.75585	1.83746
4517.70234	1.83844
4515.64884	1.84538
4513.59534	1.85139
4511.54184	1.85370
4509.48834	1.85232
4507.43484	1.84488
4505.38134	1.83632
4503.32784	1.83390
4501.27434	1.83865
4499.22084	1.84708
4497.16733	1.85309
4495.11383	1.85420
4493.06033	1.85228
4491.00683	1.84927
4488.95333	1.84901
4486.89983	1.84982
4484.84633	1.84874
4482.79283	1.85007
4480.73933	1.85358
4478.68582	1.85359
4476.63232	1.85352
4474.57882	1.85504
4472.52532	1.85313
4470.47182	1.85304
4468.41832	1.85760
4466.36482	1.86002
4464.31132	1.86168
4462.25782	1.86500
4460.20432	1.86341
4458.15081	1.85765
4456.09731	1.85761
4454.04381	1.86511
4451.99031	1.87222
4449.93681	1.87541
4447.88331	1.87652
4445.82981	1.87762
4443.77631	1.87957
4441.72281	1.88107
4439.66930	1.88284
4437.61580	1.88537
4435.56230	1.88751
4433.50880	1.88980
4431.45530	1.89355
4429.40180	1.89808
4427.34830	1.90107
4425.29480	1.90265
4423.24130	1.90475
4421.18779	1.90623
4419.13429	1.90620
4417.08079	1.90594
4415.02729	1.90521
4412.97379	1.90626
4410.92029	1.90828
4408.86679	1.90730
4406.81329	1.90796
4404.75979	1.91334
4402.70629	1.92076
4400.65278	1.92573
4398.59928	1.92383
4396.54578	1.91938
4394.49228	1.92170
4392.43878	1.92898
4390.38528	1.93428
4388.33178	1.93781
4386.27828	1.94019
4384.22478	1.93942
4382.17127	1.93597
4380.11777	1.93272
4378.06427	1.92912
4376.01077	1.92632
4373.95727	1.93052
4371.90377	1.93982
4369.85027	1.94379
4367.79677	1.94227
4365.74327	1.94240
4363.68976	1.94289
4361.63626	1.94232
4359.58276	1.93948
4357.52926	1.93610
4355.47576	1.94064
4353.42226	1.95013
4351.36876	1.95208
4349.31526	1.94715
4347.26176	1.94536
4345.20826	1.95272
4343.15475	1.96543
4341.10125	1.97171
4339.04775	1.96852
4336.99425	1.96401
4334.94075	1.96614
4332.88725	1.97393
4330.83375	1.97822
4328.78025	1.97351
4326.72675	1.96674
4324.67324	1.96420
4322.61974	1.96532
4320.56624	1.96609
4318.51274	1.95850
4316.45924	1.94939
4314.40574	1.94878
4312.35224	1.94891
4310.29874	1.94481
4308.24524	1.94446
4306.19174	1.94922
4304.13823	1.95393
4302.08473	1.95808
4300.03123	1.96112
4297.97773	1.96237
4295.92423	1.95893
4293.87073	1.95173
4291.81723	1.94841
4289.76373	1.95028
4287.71023	1.95261
4285.65672	1.95224
4283.60322	1.95085
4281.54972	1.94975
4279.49622	1.94770
4277.44272	1.94740
4275.38922	1.95035
4273.33572	1.95510
4271.28222	1.96100
4269.22872	1.96182
4267.17521	1.95918
4265.12171	1.95980
4263.06821	1.95805
4261.01471	1.95423
4258.96121	1.95680
4256.90771	1.96659
4254.85421	1.97383
4252.80071	1.97169
4250.74721	1.96978
4248.69371	1.97390
4246.64020	1.97492
4244.58670	1.96829
4242.53320	1.96051
4240.47970	1.95432
4238.42620	1.94967
4236.37270	1.94957
4234.31920	1.95164
4232.26570	1.95215
4230.21220	1.95193
4228.15869	1.95127
4226.10519	1.95161
4224.05169	1.95177
4221.99819	1.95061
4219.94469	1.95003
4217.89119	1.94949
4215.83769	1.95114
4213.78419	1.95541
4211.73069	1.95548
4209.67719	1.95100
4207.62368	1.95021
4205.57018	1.95506
4203.51668	1.96089
4201.46318	1.96410
4199.40968	1.96313
4197.35618	1.96189
4195.30268	1.96601
4193.24918	1.97166
4191.19568	1.97082
4189.14217	1.96437
4187.08867	1.96148
4185.03517	1.96472
4182.98167	1.96748
4180.92817	1.96852
4178.87467	1.97078
4176.82117	1.97205
4174.76767	1.97130
4172.71417	1.97118
4170.66066	1.96976
4168.60716	1.96677
4166.55366	1.96650
4164.50016	1.96923
4162.44666	1.96899
4160.39316	1.96437
4158.33966	1.96142
4156.28616	1.96024
4154.23266	1.95985
4152.17916	1.96233
4150.12565	1.96597
4148.07215	1.96718
4146.01865	1.96568
4143.96515	1.96436
4141.91165	1.96368
4139.85815	1.96400
4137.80465	1.96536
4135.75115	1.96507
4133.69765	1.96352
4131.64414	1.96340
4129.59064	1.96379
4127.53714	1.96334
4125.48364	1.96385
4123.43014	1.96464
4121.37664	1.96596
4119.32314	1.96861
4117.26964	1.96798
4115.21614	1.96526
4113.16263	1.96768
4111.10913	1.97386
4109.05563	1.97510
4107.00213	1.97141
4104.94863	1.97098
4102.89513	1.97167
4100.84163	1.96662
4098.78813	1.96281
4096.73463	1.96591
4094.68113	1.96813
4092.62762	1.96912
4090.57412	1.97396
4088.52062	1.97521
4086.46712	1.96579
4084.41362	1.95649
4082.36012	1.96058
4080.30662	1.97310
4078.25312	1.97938
4076.19962	1.97705
4074.14611	1.97558
4072.09261	1.97967
4070.03911	1.98412
4067.98561	1.98499
4065.93211	1.98595
4063.87861	1.98645
4061.82511	1.98144
4059.77161	1.97554
4057.71811	1.97551
4055.66461	1.97651
4053.61110	1.97307
4051.55760	1.97279
4049.50410	1.97784
4047.45060	1.97836
4045.39710	1.97638
4043.34360	1.97973
4041.29010	1.98527
4039.23660	1.98772
4037.18310	1.98463
4035.12959	1.97939
4033.07609	1.97822
4031.02259	1.97879
4028.96909	1.97645
4026.91559	1.97061
4024.86209	1.96661
4022.80859	1.97065
4020.75509	1.97672
4018.70159	1.97653
4016.64808	1.97296
4014.59458	1.97114
4012.54108	1.97176
4010.48758	1.97531
4008.43408	1.98011
4006.38058	1.98058
4004.32708	1.97695
4002.27358	1.97517
4000.22008	1.97599
3998.16658	1.97486
3996.11307	1.97026
3994.05957	1.96745
3992.00607	1.97138
3989.95257	1.97915
3987.89907	1.98349
3985.84557	1.98108
3983.79207	1.97985
3981.73857	1.98383
3979.68507	1.98381
3977.63156	1.97777
3975.57806	1.97286
3973.52456	1.97115
3971.47106	1.97041
3969.41756	1.97064
3967.36406	1.97207
3965.31056	1.97364
3963.25706	1.97444
3961.20356	1.97338
3959.15006	1.97320
3957.09655	1.97489
3955.04305	1.97421
3952.98955	1.97135
3950.93605	1.96999
3948.88255	1.97041
3946.82905	1.97288
3944.77555	1.97774
3942.72205	1.97947
3940.66855	1.97561
3938.61504	1.97183
3936.56154	1.96790
3934.50804	1.96292
3932.45454	1.95802
3930.40104	1.95589
3928.34754	1.96153
3926.29404	1.97167
3924.24054	1.97781
3922.18704	1.97662
3920.13353	1.97295
3918.08003	1.96875
3916.02653	1.96661
3913.97303	1.96966
3911.91953	1.97132
3909.86603	1.96941
3907.81253	1.96734
3905.75903	1.96393
3903.70553	1.96007
3901.65203	1.96014
3899.59852	1.96202
3897.54502	1.96212
3895.49152	1.96107
3893.43802	1.96073
3891.38452	1.96244
3889.33102	1.96474
3887.27752	1.96376
3885.22402	1.95961
3883.17052	1.96128
3881.11701	1.96784
3879.06351	1.97011
3877.01001	1.96958
3874.95651	1.96986
3872.90301	1.97269
3870.84951	1.97509
3868.79601	1.97217
3866.74251	1.96904
3864.68901	1.96814
3862.63550	1.96783
3860.58200	1.96721
3858.52850	1.96515
3856.47500	1.96376
3854.42150	1.96344
3852.36800	1.96030
3850.31450	1.95930
3848.26100	1.96122
3846.20750	1.96455
3844.15400	1.96845
3842.10049	1.96791
3840.04699	1.96310
3837.99349	1.95936
3835.93999	1.95815
3833.88649	1.95817
3831.83299	1.95978
3829.77949	1.96368
3827.72599	1.96932
3825.67249	1.97481
3823.61898	1.97748
3821.56548	1.97527
3819.51198	1.96832
3817.45848	1.96263
3815.40498	1.96299
3813.35148	1.96583
3811.29798	1.96557
3809.24448	1.96550
3807.19098	1.96503
3805.13748	1.96472
3803.08397	1.97063
3801.03047	1.97346
3798.97697	1.96859
3796.92347	1.96850
3794.86997	1.97157
3792.81647	1.97268
3790.76297	1.97288
3788.70947	1.97386
3786.65597	1.97568
3784.60246	1.97633
3782.54896	1.97720
3780.49546	1.97896
3778.44196	1.97878
3776.38846	1.97679
3774.33496	1.97370
3772.28146	1.96918
3770.22796	1.96443
3768.17446	1.96332
3766.12095	1.96608
3764.06745	1.96973
3762.01395	1.97257
3759.96045	1.97210
3757.90695	1.96954
3755.85345	1.97073
3753.79995	1.97401
3751.74645	1.97466
3749.69295	1.97384
3747.63945	1.97541
3745.58594	1.97877
3743.53244	1.98039
3741.47894	1.98302
3739.42544	1.98958
3737.37194	1.99672
3735.31844	2.00081
3733.26494	1.99806
3731.21144	1.99250
3729.15794	1.99208
3727.10443	1.99506
3725.05093	1.99706
3722.99743	1.99759
3720.94393	2.00033
3718.89043	2.00678
3716.83693	2.01337
3714.78343	2.01819
3712.72993	2.01904
3710.67643	2.01275
3708.62292	2.00925
3706.56942	2.01599
3704.51592	2.02636
3702.46242	2.03038
3700.40892	2.02934
3698.35542	2.03384
3696.30192	2.03984
3694.24842	2.04104
3692.19492	2.04247
3690.14142	2.04964
3688.08791	2.05535
3686.03441	2.05002
3683.98091	2.04515
3681.92741	2.05000
3679.87391	2.06001
3677.82041	2.06433
3675.76691	2.05652
3673.71341	2.05089
3671.65991	2.05743
3669.60640	2.06825
3667.55290	2.07420
3665.49940	2.07697
3663.44590	2.08021
3661.39240	2.08331
3659.33890	2.08618
3657.28540	2.08738
3655.23190	2.08765
3653.17840	2.09294
3651.12490	2.10119
3649.07139	2.09987
3647.01789	2.09165
3644.96439	2.09126
3642.91089	2.09722
3640.85739	2.10160
3638.80389	2.09950
3636.75039	2.09680
3634.69689	2.09725
3632.64339	2.09801
3630.58988	2.09900
3628.53638	2.10148
3626.48288	2.10493
3624.42938	2.10909
3622.37588	2.11099
3620.32238	2.11098
3618.26888	2.10774
3616.21538	2.10065
3614.16188	2.09702
3612.10837	2.09906
3610.05487	2.10504
3608.00137	2.11167
3605.94787	2.11536
3603.89437	2.11412
3601.84087	2.11093
3599.78737	2.11405
3597.73387	2.12003
3595.68037	2.11932
3593.62687	2.11585
3591.57336	2.11361
3589.51986	2.11034
3587.46636	2.10678
3585.41286	2.10538
3583.35936	2.10581
3581.30586	2.10611
3579.25236	2.10822
3577.19886	2.11290
3575.14536	2.11575
3573.09185	2.11669
3571.03835	2.11819
3568.98485	2.11503
3566.93135	2.10612
3564.87785	2.10783
3562.82435	2.11693
3560.77085	2.12039
3558.71735	2.11931
3556.66385	2.11781
3554.61035	2.11778
3552.55684	2.11853
3550.50334	2.11834
3548.44984	2.12070
3546.39634	2.12273
3544.34284	2.11786
3542.28934	2.11324
3540.23584	2.11360
3538.18234	2.11295
3536.12884	2.10841
3534.07533	2.10817
3532.02183	2.11456
3529.96833	2.11759
3527.91483	2.11397
3525.86133	2.11029
3523.80783	2.11265
3521.75433	2.11958
3519.70083	2.12330
3517.64733	2.12076
3515.59382	2.11626
3513.54032	2.11380
3511.48682	2.11221
3509.43332	2.11047
3507.37982	2.11049
3505.32632	2.10968
3503.27282	2.10798
3501.21932	2.11173
3499.16582	2.11781
3497.11232	2.11793
3495.05881	2.11373
3493.00531	2.11240
3490.95181	2.11549
3488.89831	2.11793
3486.84481	2.11688
3484.79131	2.11514
3482.73781	2.11322
3480.68431	2.11091
3478.63081	2.10977
3476.57730	2.10941
3474.52380	2.10759
3472.47030	2.10519
3470.41680	2.10743
3468.36330	2.11280
3466.30980	2.11619
3464.25630	2.11915
3462.20280	2.12195
3460.14930	2.11960
3458.09579	2.10995
3456.04229	2.10273
3453.98879	2.10613
3451.93529	2.11230
3449.88179	2.11475
3447.82829	2.11560
3445.77479	2.11604
3443.72129	2.11721
3441.66779	2.11923
3439.61429	2.12274
3437.56078	2.12634
3435.50728	2.12381
3433.45378	2.11798
3431.40028	2.11672
3429.34678	2.11778
3427.29328	2.11570
3425.23978	2.11292
3423.18628	2.11546
3421.13278	2.12122
3419.07927	2.12179
3417.02577	2.11679
3414.97227	2.11115
3412.91877	2.10935
3410.86527	2.11392
3408.81177	2.12002
3406.75827	2.12181
3404.70477	2.11758
3402.65127	2.11185
3400.59777	2.11101
3398.54426	2.11462
3396.49076	2.12129
3394.43726	2.12815
3392.38376	2.12806
3390.33026	2.12037
3388.27676	2.11288
3386.22326	2.11098
3384.16976	2.11364
3382.11626	2.11541
3380.06275	2.11381
3378.00925	2.11249
3375.95575	2.11445
3373.90225	2.11936
3371.84875	2.12027
3369.79525	2.11507
3367.74175	2.11312
3365.68825	2.11205
3363.63475	2.10794
3361.58124	2.10950
3359.52774	2.11484
3357.47424	2.11616
3355.42074	2.11590
3353.36724	2.11607
3351.31374	2.11589
3349.26024	2.11657
3347.20674	2.11685
3345.15324	2.11593
3343.09974	2.11432
3341.04623	2.11058
3338.99273	2.10683
3336.93923	2.10845
3334.88573	2.11645
3332.83223	2.12310
3330.77873	2.12127
3328.72523	2.11623
3326.67173	2.11557
3324.61823	2.11682
3322.56472	2.11629
3320.51122	2.11600
3318.45772	2.11561
3316.40422	2.11357
3314.35072	2.11146
3312.29722	2.11164
3310.24372	2.11480
3308.19022	2.11870
3306.13672	2.11864
3304.08321	2.11457
3302.02971	2.11339
3299.97621	2.11721
3297.92271	2.12128
3295.86921	2.12314
3293.81571	2.12132
3291.76221	2.11735
3289.70871	2.11435
3287.65521	2.11126
3285.60171	2.11042
3283.54820	2.11469
3281.49470	2.11770
3279.44120	2.11418
3277.38770	2.11192
3275.33420	2.11688
3273.28070	2.12161
3271.22720	2.12247
3269.17370	2.12414
3267.12020	2.12568
3265.06669	2.12417
3263.01319	2.12141
3260.95969	2.11945
3258.90619	2.11826
3256.85269	2.11765
3254.79919	2.11663
3252.74569	2.11719
3250.69219	2.12224
3248.63869	2.12603
3246.58519	2.12351
3244.53168	2.12039
3242.47818	2.12095
3240.42468	2.12074
3238.37118	2.11685
3236.31768	2.11488
3234.26418	2.11888
3232.21068	2.12445
3230.15718	2.12421
3228.10368	2.11701
3226.05017	2.11297
3223.99667	2.11538
3221.94317	2.11697
3219.88967	2.11994
3217.83617	2.12570
3215.78267	2.12591
3213.72917	2.12095
3211.67567	2.11998
3209.62217	2.12455
3207.56866	2.12524
3205.51516	2.11927
3203.46166	2.11521
3201.40816	2.11695
3199.35466	2.12153
3197.30116	2.12494
3195.24766	2.12378
3193.19416	2.11971
3191.14066	2.12157
3189.08716	2.12754
3187.03365	2.12642
3184.98015	2.12158
3182.92665	2.11969
3180.87315	2.12133
3178.81965	2.12575
3176.76615	2.12671
3174.71265	2.12196
3172.65915	2.11696
3170.60565	2.11446
3168.55214	2.11419
3166.49864	2.11673
3164.44514	2.12151
3162.39164	2.12503
3160.33814	2.12351
3158.28464	2.11959
3156.23114	2.12046
3154.17764	2.12475
3152.12414	2.12321
3150.07064	2.11717
3148.01713	2.11591
3145.96363	2.11858
3143.91013	2.12124
3141.85663	2.12318
3139.80313	2.12229
3137.74963	2.12199
3135.69613	2.12531
3133.64263	2.12656
3131.58913	2.12542
3129.53562	2.12716
3127.48212	2.12891
3125.42862	2.12725
3123.37512	2.12675
3121.32162	2.13071
3119.26812	2.13436
3117.21462	2.13150
3115.16112	2.12600
3113.10762	2.12570
3111.05411	2.12653
3109.00061	2.12408
3106.94711	2.12224
3104.89361	2.12120
3102.84011	2.12225
3100.78661	2.12737
3098.73311	2.13014
3096.67961	2.12718
3094.62611	2.12403
3092.57261	2.12206
3090.51910	2.12121
3088.46560	2.12338
3086.41210	2.12588
3084.35860	2.12684
3082.30510	2.12732
3080.25160	2.12945
3078.19810	2.13350
3076.14460	2.13430
3074.09110	2.13082
3072.03759	2.12888
3069.98409	2.12933
3067.93059	2.12984
3065.87709	2.13252
3063.82359	2.13413
3061.77009	2.13284
3059.71659	2.13498
3057.66309	2.13757
3055.60959	2.13544
3053.55608	2.13191
3051.50258	2.12954
3049.44908	2.13115
3047.39558	2.13704
3045.34208	2.14063
3043.28858	2.14021
3041.23508	2.13979
3039.18158	2.13842
3037.12808	2.13552
3035.07458	2.13487
3033.02107	2.13567
3030.96757	2.13294
3028.91407	2.12958
3026.86057	2.13250
3024.80707	2.13946
3022.75357	2.14397
3020.70007	2.14609
3018.64657	2.14869
3016.59307	2.14973
3014.53956	2.14903
3012.48606	2.15260
3010.43256	2.15941
3008.37906	2.16344
3006.32556	2.16222
3004.27206	2.15559
3002.21856	2.14994
3000.16506	2.15081
2998.11156	2.15294
2996.05806	2.15076
2994.00455	2.14753
2991.95105	2.14722
2989.89755	2.14699
2987.84405	2.14080
2985.79055	2.13088
2983.73705	2.12583
2981.68355	2.12604
2979.63005	2.12586
2977.57655	2.12322
2975.52304	2.12024
2973.46954	2.11934
2971.41604	2.12025
2969.36254	2.12109
2967.30904	2.12147
2965.25554	2.12253
2963.20204	2.12355
2961.14854	2.12292
2959.09504	2.12212
2957.04153	2.12221
2954.98803	2.12203
2952.93453	2.12143
2950.88103	2.11996
2948.82753	2.11708
2946.77403	2.11262
2944.72053	2.10888
2942.66703	2.10867
2940.61353	2.10776
2938.56003	2.10456
2936.50652	2.10381
2934.45302	2.10443
2932.39952	2.10043
2930.34602	2.09229
2928.29252	2.08811
2926.23902	2.08934
2924.18552	2.08893
2922.13202	2.08372
2920.07852	2.07664
2918.02501	2.07110
2915.97151	2.06945
2913.91801	2.07294
2911.86451	2.08128
2909.81101	2.08922
2907.75751	2.09057
2905.70401	2.08648
2903.65051	2.08194
2901.59701	2.08038
2899.54351	2.08073
2897.49000	2.08169
2895.43650	2.08450
2893.38300	2.08839
2891.32950	2.09266
2889.27600	2.09611
2887.22250	2.09508
2885.16900	2.09163
2883.11550	2.09156
2881.06200	2.09454
2879.00849	2.09815
2876.95499	2.10009
2874.90149	2.09718
2872.84799	2.09284
2870.79449	2.09118
2868.74099	2.08953
2866.68749	2.08841
2864.63399	2.09022
2862.58049	2.09318
2860.52698	2.09419
2858.47348	2.09238
2856.41998	2.09013
2854.36648	2.08690
2852.31298	2.08101
2850.25948	2.07604
2848.20598	2.07626
2846.15248	2.08013
2844.09898	2.08233
2842.04548	2.08337
2839.99197	2.08587
2837.93847	2.08777
2835.88497	2.08952
2833.83147	2.09162
2831.77797	2.09170
2829.72447	2.09274
2827.67097	2.09793
2825.61747	2.10318
2823.56397	2.10365
2821.51046	2.10168
2819.45696	2.10050
2817.40346	2.09780
2815.34996	2.09504
2813.29646	2.09653
2811.24296	2.10028
2809.18946	2.10406
2807.13596	2.10675
2805.08246	2.10550
2803.02895	2.10335
2800.97545	2.10464
2798.92195	2.10702
2796.86845	2.10811
2794.81495	2.10975
2792.76145	2.11171
2790.70795	2.11009
2788.65445	2.10497
2786.60095	2.10237
2784.54745	2.10464
2782.49394	2.10667
2780.44044	2.10593
2778.38694	2.10443
2776.33344	2.10399
2774.27994	2.10450
2772.22644	2.10508
2770.17294	2.10607
2768.11944	2.10746
2766.06594	2.10895
2764.01243	2.10999
2761.95893	2.11131
2759.90543	2.11201
2757.85193	2.11046
2755.79843	2.10860
2753.74493	2.10703
2751.69143	2.10621
2749.63793	2.10780
2747.58443	2.10982
2745.53093	2.10977
2743.47742	2.10856
2741.42392	2.10803
2739.37042	2.10608
2737.31692	2.10190
2735.26342	2.10122
2733.20992	2.10415
2731.15642	2.10614
2729.10292	2.10785
2727.04942	2.10966
2724.99591	2.11002
2722.94241	2.10982
2720.88891	2.11128
2718.83541	2.11258
2716.78191	2.11109
2714.72841	2.11014
2712.67491	2.11288
2710.62141	2.11635
2708.56791	2.11480
2706.51440	2.10998
2704.46090	2.10855
2702.40740	2.10863
2700.35390	2.10787
2698.30040	2.10779
2696.24690	2.10759
2694.19340	2.10737
2692.13990	2.10767
2690.08640	2.10875
2688.03290	2.10956
2685.97939	2.10919
2683.92589	2.10891
2681.87239	2.10837
2679.81889	2.10692
2677.76539	2.10565
2675.71189	2.10566
2673.65839	2.10652
2671.60489	2.10837
2669.55139	2.11114
2667.49788	2.11168
2665.44438	2.10959
2663.39088	2.10925
2661.33738	2.11075
2659.28388	2.11225
2657.23038	2.11468
2655.17688	2.11613
2653.12338	2.11593
2651.06988	2.11615
2649.01637	2.11535
2646.96287	2.11309
2644.90937	2.11106
2642.85587	2.10949
2640.80237	2.10929
2638.74887	2.11078
2636.69537	2.11170
2634.64187	2.11148
2632.58837	2.11182
2630.53487	2.11302
2628.48136	2.11452
2626.42786	2.11556
2624.37436	2.11523
2622.32086	2.11427
2620.26736	2.11362
2618.21386	2.11315
2616.16036	2.11315
2614.10686	2.11233
2612.05336	2.10875
2609.99985	2.10643
2607.94635	2.10924
2605.89285	2.11406
2603.83935	2.11753
2601.78585	2.11788
2599.73235	2.11524
2597.67885	2.11244
2595.62535	2.11014
2593.57185	2.10893
2591.51835	2.11026
2589.46484	2.11300
2587.41134	2.11598
2585.35784	2.11818
2583.30434	2.11830
2581.25084	2.11747
2579.19734	2.11798
2577.14384	2.12055
2575.09034	2.12131
2573.03684	2.11723
2570.98333	2.11247
2568.92983	2.11070
2566.87633	2.11202
2564.82283	2.11417
2562.76933	2.11329
2560.71583	2.11095
2558.66233	2.11005
2556.60883	2.11012
2554.55533	2.11101
2552.50182	2.11143
2550.44832	2.11000
2548.39482	2.10921
2546.34132	2.11076
2544.28782	2.11233
2542.23432	2.11226
2540.18082	2.11061
2538.12732	2.11062
2536.07382	2.11448
2534.02032	2.11754
2531.96681	2.11622
2529.91331	2.11447
2527.85981	2.11486
2525.80631	2.11452
2523.75281	2.11414
2521.69931	2.11423
2519.64581	2.11289
2517.59231	2.11149
2515.53881	2.11189
2513.48530	2.11341
2511.43180	2.11473
2509.37830	2.11677
2507.32480	2.11853
2505.27130	2.11747
2503.21780	2.11455
2501.16430	2.11219
2499.11080	2.11040
2497.05730	2.10931
2495.00380	2.11018
2492.95029	2.11238
2490.89679	2.11545
2488.84329	2.11840
2486.78979	2.11834
2484.73629	2.11521
2482.68279	2.11331
2480.62929	2.11374
2478.57579	2.11298
2476.52229	2.11206
2474.46878	2.11488
2472.41528	2.11922
2470.36178	2.11996
2468.30828	2.11750
2466.25478	2.11557
2464.20128	2.11596
2462.14778	2.11847
2460.09428	2.11969
2458.04078	2.11698
2455.98727	2.11436
2453.93377	2.11470
2451.88027	2.11423
2449.82677	2.11237
2447.77327	2.11327
2445.71977	2.11484
2443.66627	2.11587
2441.61277	2.11859
2439.55927	2.11875
2437.50577	2.11578
2435.45226	2.11541
2433.39876	2.11647
2431.34526	2.11469
2429.29176	2.11252
2427.23826	2.11344
2425.18476	2.11534
2423.13126	2.11634
2421.07776	2.11653
2419.02426	2.11689
2416.97075	2.11903
2414.91725	2.12070
2412.86375	2.12010
2410.81025	2.11847
2408.75675	2.11660
2406.70325	2.11622
2404.64975	2.11632
2402.59625	2.11550
2400.54275	2.11645
2398.48924	2.11823
2396.43574	2.11778
2394.38224	2.11591
2392.32874	2.11466
2390.27524	2.11479
2388.22174	2.11599
2386.16824	2.11712
2384.11474	2.11690
2382.06124	2.11601
2380.00774	2.11723
2377.95423	2.12000
2375.90073	2.12046
2373.84723	2.11874
2371.79373	2.11857
2369.74023	2.11991
2367.68673	2.12211
2365.63323	2.12792
2363.57973	2.13183
2361.52623	2.12935
2359.47272	2.12286
2357.41922	2.11387
2355.36572	2.11091
2353.31222	2.11354
2351.25872	2.11255
2349.20522	2.10982
2347.15172	2.11047
2345.09822	2.11497
2343.04472	2.12115
2340.99122	2.12693
2338.93771	2.12631
2336.88421	2.11822
2334.83071	2.11383
2332.77721	2.11550
2330.72371	2.11638
2328.67021	2.11534
2326.61671	2.11583
2324.56321	2.11665
2322.50971	2.11582
2320.45620	2.11754
2318.40270	2.12310
2316.34920	2.12768
2314.29570	2.12537
2312.24220	2.11691
2310.18870	2.11003
2308.13520	2.10695
2306.08170	2.10542
2304.02820	2.10792
2301.97469	2.11257
2299.92119	2.11276
2297.86769	2.11225
2295.81419	2.11389
2293.76069	2.11294
2291.70719	2.11103
2289.65369	2.11237
2287.60019	2.11374
2285.54669	2.11157
2283.49319	2.10867
2281.43968	2.10718
2279.38618	2.10668
2277.33268	2.10808
2275.27918	2.11185
2273.22568	2.11591
2271.17218	2.11755
2269.11868	2.11574
2267.06518	2.11333
2265.01168	2.11339
2262.95817	2.11467
2260.90467	2.11519
2258.85117	2.11408
2256.79767	2.11267
2254.74417	2.11259
2252.69067	2.11208
2250.63717	2.11108
2248.58367	2.11278
2246.53017	2.11623
2244.47667	2.11854
2242.42316	2.11926
2240.36966	2.11745
2238.31616	2.11502
2236.26266	2.11481
2234.20916	2.11525
2232.15566	2.11619
2230.10216	2.11844
2228.04866	2.11946
2225.99516	2.11882
2223.94165	2.11873
2221.88815	2.11887
2219.83465	2.11781
2217.78115	2.11696
2215.72765	2.11747
2213.67415	2.11779
2211.62065	2.11821
2209.56715	2.11944
2207.51365	2.11962
2205.46014	2.11661
2203.40664	2.11262
2201.35314	2.11203
2199.29964	2.11384
2197.24614	2.11605
2195.19264	2.11870
2193.13914	2.12025
2191.08564	2.11979
2189.03214	2.11908
2186.97864	2.11914
2184.92513	2.11931
2182.87163	2.12045
2180.81813	2.12253
2178.76463	2.12263
2176.71113	2.11976
2174.65763	2.11793
2172.60413	2.11926
2170.55063	2.12175
2168.49713	2.12373
2166.44362	2.12432
2164.39012	2.12584
2162.33662	2.12828
2160.28312	2.12720
2158.22962	2.12389
2156.17612	2.12260
2154.12262	2.12380
2152.06912	2.12616
2150.01562	2.12793
2147.96211	2.12814
2145.90861	2.12771
2143.85511	2.12665
2141.80161	2.12666
2139.74811	2.12930
2137.69461	2.12981
2135.64111	2.12772
2133.58761	2.12659
2131.53411	2.12510
2129.48061	2.12269
2127.42710	2.12136
2125.37360	2.12327
2123.32010	2.12631
2121.26660	2.12777
2119.21310	2.12929
2117.15960	2.13007
2115.10610	2.12828
2113.05260	2.12555
2110.99910	2.12483
2108.94559	2.12623
2106.89209	2.12617
2104.83859	2.12573
2102.78509	2.12912
2100.73159	2.13376
2098.67809	2.13517
2096.62459	2.13311
2094.57109	2.12984
2092.51759	2.12906
2090.46409	2.13020
2088.41058	2.12925
2086.35708	2.12766
2084.30358	2.12851
2082.25008	2.13123
2080.19658	2.13429
2078.14308	2.13533
2076.08958	2.13344
2074.03608	2.12989
2071.98258	2.12776
2069.92907	2.13042
2067.87557	2.13444
2065.82207	2.13583
2063.76857	2.13651
2061.71507	2.13654
2059.66157	2.13475
2057.60807	2.13332
2055.55457	2.13485
2053.50107	2.13777
2051.44756	2.13753
2049.39406	2.13400
2047.34056	2.13283
2045.28706	2.13603
2043.23356	2.13799
2041.18006	2.13503
2039.12656	2.13083
2037.07306	2.13058
2035.01956	2.13341
2032.96606	2.13444
2030.91255	2.13391
2028.85905	2.13314
2026.80555	2.13201
2024.75205	2.13300
2022.69855	2.13483
2020.64505	2.13416
2018.59155	2.13153
2016.53805	2.12861
2014.48455	2.12794
2012.43104	2.13067
2010.37754	2.13482
2008.32404	2.13688
2006.27054	2.13387
2004.21704	2.12945
2002.16354	2.13020
2000.11004	2.13411
1998.05654	2.13578
1996.00304	2.13597
1993.94953	2.13591
1991.89603	2.13536
1989.84253	2.13588
1987.78903	2.13707
1985.73553	2.13677
1983.68203	2.13546
1981.62853	2.13486
1979.57503	2.13395
1977.52153	2.13413
1975.46803	2.13766
1973.41452	2.14016
1971.36102	2.13921
1969.30752	2.13869
1967.25402	2.13951
1965.20052	2.13936
1963.14702	2.13877
1961.09352	2.13902
1959.04002	2.13994
1956.98652	2.14137
1954.93301	2.14294
1952.87951	2.14295
1950.82601	2.13987
1948.77251	2.13484
1946.71901	2.13106
1944.66551	2.13176
1942.61201	2.13564
1940.55851	2.13771
1938.50501	2.13808
1936.45151	2.13923
1934.39800	2.14095
1932.34450	2.14297
1930.29100	2.14429
1928.23750	2.14293
1926.18400	2.14124
1924.13050	2.14255
1922.07700	2.14504
1920.02350	2.14540
1917.97000	2.14458
1915.91649	2.14557
1913.86299	2.14669
1911.80949	2.14529
1909.75599	2.14357
1907.70249	2.14427
1905.64899	2.14757
1903.59549	2.15220
1901.54199	2.15428
1899.48849	2.15241
1897.43498	2.14945
1895.38148	2.14715
1893.32798	2.14654
1891.27448	2.14705
1889.22098	2.14775
1887.16748	2.14813
1885.11398	2.14793
1883.06048	2.14831
1881.00698	2.14873
1878.95348	2.14923
1876.89997	2.14946
1874.84647	2.14843
1872.79297	2.14825
1870.73947	2.14954
1868.68597	2.15153
1866.63247	2.15384
1864.57897	2.15533
1862.52547	2.15602
1860.47197	2.15771
1858.41846	2.16001
1856.36496	2.15946
1854.31146	2.15778
1852.25796	2.16012
1850.20446	2.16501
1848.15096	2.16802
1846.09746	2.16851
1844.04396	2.16666
1841.99046	2.16574
1839.93696	2.16910
1837.88345	2.17365
1835.82995	2.17494
1833.77645	2.17333
1831.72295	2.17107
1829.66945	2.16825
1827.61595	2.16621
1825.56245	2.16759
1823.50895	2.17309
1821.45545	2.17913
1819.40194	2.18426
1817.34844	2.18808
1815.29494	2.18885
1813.24144	2.18758
1811.18794	2.18816
1809.13444	2.19343
1807.08094	2.19991
1805.02744	2.20392
1802.97394	2.20665
1800.92043	2.21041
1798.86693	2.21447
1796.81343	2.21787
1794.75993	2.22100
1792.70643	2.22103
1790.65293	2.21871
1788.59943	2.22108
1786.54593	2.22906
1784.49243	2.23985
1782.43893	2.24822
1780.38542	2.25369
1778.33192	2.26212
1776.27842	2.27304
1774.22492	2.27933
1772.17142	2.27987
1770.11792	2.28644
1768.06442	2.30146
1766.01092	2.31579
1763.95742	2.32703
1761.90391	2.34287
1759.85041	2.36537
1757.79691	2.38822
1755.74341	2.41149
1753.68991	2.43427
1751.63641	2.45656
1749.58291	2.46561
1747.52941	2.44081
1745.47591	2.38939
1743.42240	2.32160
1741.36890	2.24544
1739.31540	2.17006
1737.26190	2.11415
1735.20840	2.06742
1733.15490	2.01589
1731.10140	1.98081
1729.04790	1.95448
1726.99440	1.92998
1724.94090	1.91058
1722.88739	1.89696
1720.83389	1.88905
1718.78039	1.88527
1716.72689	1.88729
1714.67339	1.89695
1712.61989	1.90921
1710.56639	1.92278
1708.51289	1.93644
1706.45939	1.94843
1704.40588	1.96006
1702.35238	1.96828
1700.29888	1.97423
1698.24538	1.98426
1696.19188	1.99611
1694.13838	2.00738
1692.08488	2.01456
1690.03138	2.01847
1687.97788	2.02279
1685.92438	2.02800
1683.87087	2.03623
1681.81737	2.04452
1679.76387	2.04756
1677.71037	2.04897
1675.65687	2.05128
1673.60337	2.05511
1671.54987	2.05763
1669.49637	2.05917
1667.44287	2.06402
1665.38936	2.07052
1663.33586	2.07570
1661.28236	2.07742
1659.22886	2.07749
1657.17536	2.07900
1655.12186	2.08255
1653.06836	2.08738
1651.01486	2.08900
1648.96136	2.08805
1646.90785	2.08617
1644.85435	2.08581
1642.80085	2.08623
1640.74735	2.08644
1638.69385	2.08839
1636.64035	2.09223
1634.58685	2.09649
1632.53335	2.09809
1630.47985	2.09690
1628.42635	2.09612
1626.37284	2.09697
1624.31934	2.09958
1622.26584	2.10380
1620.21234	2.10551
1618.15884	2.10307
1616.10534	2.10104
1614.05184	2.10368
1611.99834	2.10648
1609.94484	2.10844
1607.89133	2.11024
1605.83783	2.11249
1603.78433	2.11561
1601.73083	2.11726
1599.67733	2.11566
1597.62383	2.11309
1595.57033	2.11358
1593.51683	2.11856
1591.46333	2.12266
1589.40982	2.12266
1587.35632	2.12229
1585.30282	2.12212
1583.24932	2.12239
1581.19582	2.12431
1579.14232	2.12624
1577.08882	2.12825
1575.03532	2.12870
1572.98182	2.12749
1570.92832	2.12844
1568.87481	2.13227
1566.82131	2.13529
1564.76781	2.13656
1562.71431	2.13778
1560.66081	2.13757
1558.60731	2.13554
1556.55381	2.13610
1554.50031	2.13588
1552.44681	2.13655
1550.39330	2.13899
1548.33980	2.14181
1546.28630	2.14475
1544.23280	2.14567
1542.17930	2.14498
1540.12580	2.14711
1538.07230	2.14825
1536.01880	2.14671
1533.96530	2.14652
1531.91180	2.15036
1529.85829	2.15404
1527.80479	2.15421
1525.75129	2.15208
1523.69779	2.15150
1521.64429	2.15458
1519.59079	2.15982
1517.53729	2.16488
1515.48379	2.16877
1513.43029	2.17156
1511.37678	2.17478
1509.32328	2.17673
1507.26978	2.17618
1505.21628	2.17950
1503.16278	2.18479
1501.10928	2.18956
1499.05578	2.19404
1497.00228	2.19659
1494.94878	2.19984
1492.89527	2.20409
1490.84177	2.20698
1488.78827	2.21159
1486.73477	2.21558
1484.68127	2.21415
1482.62777	2.20992
1480.57427	2.20420
1478.52077	2.19425
1476.46727	2.17999
1474.41377	2.17038
1472.36026	2.17220
1470.30676	2.17707
1468.25326	2.17706
1466.19976	2.17185
1464.14626	2.16812
1462.09276	2.17155
1460.03926	2.17480
1457.98576	2.17165
1455.93226	2.16487
1453.87875	2.15960
1451.82525	2.15348
1449.77175	2.14488
1447.71825	2.13258
1445.66475	2.12076
1443.61125	2.11403
1441.55775	2.10985
1439.50425	2.10384
1437.45075	2.09611
1435.39725	2.09347
1433.34374	2.09477
1431.29024	2.09526
1429.23674	2.09793
1427.18324	2.10369
1425.12974	2.10974
1423.07624	2.11458
1421.02274	2.11884
1418.96924	2.12662
1416.91574	2.13753
1414.86223	2.14619
1412.80873	2.15220
1410.75523	2.15710
1408.70173	2.16176
1406.64823	2.16535
1404.59473	2.17100
1402.54123	2.17830
1400.48773	2.18279
1398.43423	2.18578
1396.38072	2.18833
1394.32722	2.18844
1392.27372	2.18372
1390.22022	2.17432
1388.16672	2.16212
1386.11322	2.15113
1384.05972	2.14461
1382.00622	2.14060
1379.95272	2.13779
1377.89922	2.13700
1375.84571	2.13835
1373.79221	2.14043
1371.73871	2.14104
1369.68521	2.14040
1367.63171	2.13955
1365.57821	2.13870
1363.52471	2.13822
1361.47121	2.13619
1359.41771	2.13371
1357.36420	2.13633
1355.31070	2.14288
1353.25720	2.14812
1351.20370	2.15183
1349.15020	2.15497
1347.09670	2.15853
1345.04320	2.16305
1342.98970	2.16530
1340.93620	2.16516
1338.88269	2.16691
1336.82919	2.16985
1334.77569	2.17139
1332.72219	2.17494
1330.66869	2.18175
1328.61519	2.18689
1326.56169	2.19057
1324.50819	2.19723
1322.45469	2.20334
1320.40119	2.20418
1318.34768	2.20132
1316.29418	2.19963
1314.24068	2.20352
1312.18718	2.21018
1310.13368	2.21427
1308.08018	2.21751
1306.02668	2.22095
1303.97318	2.22246
1301.91968	2.22228
1299.86617	2.22020
1297.81267	2.21765
1295.75917	2.21749
1293.70567	2.21839
1291.65217	2.21660
1289.59867	2.21329
1287.54517	2.21344
1285.49167	2.21642
1283.43817	2.21869
1281.38467	2.21993
1279.33116	2.21774
1277.27766	2.21153
1275.22416	2.20630
1273.17066	2.20220
1271.11716	2.19756
1269.06366	2.19297
1267.01016	2.18738
1264.95666	2.18439
1262.90316	2.18734
1260.84965	2.19098
1258.79615	2.19160
1256.74265	2.19117
1254.68915	2.18998
1252.63565	2.18876
1250.58215	2.18763
1248.52865	2.18285
1246.47515	2.17439
1244.42165	2.16649
1242.36814	2.15797
1240.31464	2.14828
1238.26114	2.14065
1236.20764	2.13377
1234.15414	2.12750
1232.10064	2.12415
1230.04714	2.12315
1227.99364	2.12497
1225.94014	2.12868
1223.88664	2.13092
1221.83313	2.13247
1219.77963	2.13561
1217.72613	2.14092
1215.67263	2.14913
1213.61913	2.15788
1211.56563	2.16514
1209.51213	2.17302
1207.45863	2.18236
1205.40513	2.19151
1203.35162	2.19595
1201.29812	2.19118
1199.24462	2.18017
1197.19112	2.16781
1195.13762	2.15418
1193.08412	2.14153
1191.03062	2.13434
1188.97712	2.13151
1186.92362	2.12860
1184.87012	2.12692
1182.81661	2.12565
1180.76311	2.11675
1178.70961	2.09945
1176.65611	2.07762
1174.60261	2.05391
1172.54911	2.03190
1170.49561	2.01194
1168.44211	1.99490
1166.38861	1.98291
1164.33510	1.97440
1162.28160	1.96587
1160.22810	1.95725
1158.17460	1.95176
1156.12110	1.94908
1154.06760	1.94617
1152.01410	1.94053
1149.96060	1.93028
1147.90710	1.91601
1145.85359	1.90134
1143.80009	1.88986
1141.74659	1.88118
1139.69309	1.87476
1137.63959	1.87196
1135.58609	1.87223
1133.53259	1.87399
1131.47909	1.87738
1129.42559	1.88373
1127.37209	1.89065
1125.31858	1.89524
1123.26508	1.90029
1121.21158	1.90766
1119.15808	1.91374
1117.10458	1.91457
1115.05108	1.91182
1112.99758	1.91020
1110.94408	1.90996
1108.89058	1.91020
1106.83707	1.91420
1104.78357	1.92407
1102.73007	1.93506
1100.67657	1.94289
1098.62307	1.94734
1096.56957	1.94764
1094.51607	1.94521
1092.46257	1.94333
1090.40907	1.94317
1088.35556	1.94408
1086.30206	1.94672
1084.24856	1.95168
1082.19506	1.95742
1080.14156	1.96203
1078.08806	1.96514
1076.03456	1.96884
1073.98106	1.97454
1071.92756	1.98146
1069.87406	1.98601
1067.82055	1.98511
1065.76705	1.98123
1063.71355	1.98045
1061.66005	1.98642
1059.60655	1.99434
1057.55305	1.99902
1055.49955	2.00320
1053.44605	2.00793
1051.39255	2.01113
1049.33904	2.01453
1047.28554	2.01837
1045.23204	2.02226
1043.17854	2.02822
1041.12504	2.03657
1039.07154	2.04757
1037.01804	2.05685
1034.96454	2.05773
1032.91104	2.05087
1030.85754	2.03679
1028.80403	2.01529
1026.75053	1.99155
1024.69703	1.97087
1022.64353	1.95521
1020.59003	1.94411
1018.53653	1.93697
1016.48303	1.93453
1014.42953	1.93605
1012.37603	1.93954
1010.32252	1.94592
1008.26902	1.95502
1006.21552	1.96283
1004.16202	1.96839
1002.10852	1.97311
1000.05502	1.97785
998.00152	1.98404
995.94802	1.98974
993.89452	1.99404
991.84101	1.99979
989.78751	2.00584
987.73401	2.01011
985.68051	2.01315
983.62701	2.01389
981.57351	2.01317
979.52001	2.01233
977.46651	2.01059
975.41301	2.00995
973.35951	2.00990
971.30600	2.00924
969.25250	2.00928
967.19900	2.00699
965.14550	2.00412
963.09200	2.00303
961.03850	2.00046
958.98500	1.99929
956.93150	2.00185
954.87800	2.00489
952.82449	2.00488
950.77099	2.00245
948.71749	2.00395
946.66399	2.00994
944.61049	2.01367
942.55699	2.01164
940.50349	2.00757
938.44999	2.00656
936.39649	2.00838
934.34298	2.01073
932.28948	2.01384
930.23598	2.01585
928.18248	2.01547
926.12898	2.01648
924.07548	2.01904
922.02198	2.02208
919.96848	2.02597
917.91498	2.02773
915.86148	2.02736
913.80797	2.02695
911.75447	2.02586
909.70097	2.02509
907.64747	2.02677
905.59397	2.03076
903.54047	2.03589
901.48697	2.04033
899.43347	2.04293
897.37997	2.04554
895.32646	2.04838
893.27296	2.04798
891.21946	2.04484
889.16596	2.04395
887.11246	2.04540
885.05896	2.04596
883.00546	2.04427
880.95196	2.04302
878.89846	2.04653
876.84496	2.05504
874.79145	2.06603
872.73795	2.07279
870.68445	2.06833
868.63095	2.05804
866.57745	2.05342
864.52395	2.05216
862.47045	2.04553
860.41695	2.03473
858.36345	2.02430
856.30994	2.01832
854.25644	2.01883
852.20294	2.02150
850.14944	2.02174
848.09594	2.02393
846.04244	2.02948
843.98894	2.02972
841.93544	2.02656
839.88194	2.02540
837.82843	2.02523
835.77493	2.02540
833.72143	2.02572
831.66793	2.02963
829.61443	2.03602
827.56093	2.03862
825.50743	2.03479
823.45393	2.02943
821.40043	2.02795
819.34693	2.02595
817.29342	2.02600
815.23992	2.03386
813.18642	2.04179
811.13292	2.04392
809.07942	2.04306
807.02592	2.03711
804.97242	2.03009
802.91892	2.03257
800.86542	2.03813
798.81191	2.03888
796.75841	2.04095
794.70491	2.04555
792.65141	2.04501
790.59791	2.04051
788.54441	2.04133
786.49091	2.05015
784.43741	2.05871
782.38391	2.05893
780.33041	2.05603
778.27690	2.05545
776.22340	2.05539
774.16990	2.05580
772.11640	2.05390
770.06290	2.04769
768.00940	2.04538
765.95590	2.04793
763.90240	2.04755
761.84890	2.04474
759.79539	2.04121
757.74189	2.03986
755.68839	2.03927
753.63489	2.03031
751.58139	2.01952
749.52789	2.01606
747.47439	2.01356
745.42089	2.00993
743.36739	2.00826
741.31388	2.00939
739.26038	2.01391
737.20688	2.01956
735.15338	2.02399
733.09988	2.02763
731.04638	2.03099
728.99288	2.03428
726.93938	2.03711
724.88588	2.03710
722.83238	2.03319
720.77887	2.02436
718.72537	2.01504
716.67187	2.01604
714.61837	2.02574
712.56487	2.03606
710.51137	2.04693
708.45787	2.05215
706.40437	2.04758
704.35087	2.04571
702.29736	2.04915
700.24386	2.04802
698.19036	2.04371
696.13686	2.04107
694.08336	2.04087
692.02986	2.04592
689.97636	2.05273
687.92286	2.05118
685.86936	2.04710
683.81585	2.04775
681.76235	2.04604
679.70885	2.04103
677.65535	2.03634
675.60185	2.03781
673.54835	2.04809
671.49485	2.06240
669.44135	2.07436
667.38785	2.06455
665.33435	2.05080
663.28084	2.05121
661.22734	2.05071
659.17384	2.04514
657.12034	2.04139
655.06684	2.03999
653.01334	2.03996
650.95984	2.04278
648.90634	2.04585
646.85284	2.04477
644.79933	2.04314
642.74583	2.04451
640.69233	2.04162
638.63883	2.03558
636.58533	2.03711
634.53183	2.04351
632.47833	2.04921
630.42483	2.05404
628.37133	2.05648
626.31783	2.05681
624.26432	2.05639
622.21082	2.05473
620.15732	2.05318
618.10382	2.05829
616.05032	2.06752
613.99682	2.07204
611.94332	2.07146
609.88982	2.06619
607.83632	2.05408
605.78281	2.04547
603.72931	2.04493
601.67581	2.04229
599.62231	2.04084
597.56881	2.04433
595.51531	2.04115
593.46181	2.03355
591.40831	2.03462
589.35481	2.03875
587.30130	2.03608
585.24780	2.02814
583.19430	2.01680
581.14080	2.01119
579.08730	2.01508
577.03380	2.01271
574.98030	1.99842
572.92680	1.98954
570.87330	1.98785
568.81980	1.97630
566.76629	1.95674
564.71279	1.94353
562.65929	1.94204
560.60579	1.94876
558.55229	1.94975
556.49879	1.93885
554.44529	1.93452
552.39179	1.94542
550.33829	1.95438
548.28478	1.95209
546.23128	1.95608
544.17778	1.97012
542.12428	1.97314
540.07078	1.96882
538.01728	1.97673
535.96378	1.99434
533.91028	2.00829
531.85678	2.01607
529.80327	2.01839
527.74977	2.01928
525.69627	2.03035
523.64277	2.05088
521.58927	2.05741
519.53577	2.05201
517.48227	2.05823
515.42877	2.06198
513.37527	2.05061
511.32177	2.04343
509.26826	2.03836
507.21476	2.02187
505.16126	2.01293
503.10776	2.02198
501.05426	2.01731
499.00076	1.99105
496.94726	1.96692
494.89376	1.95519
492.84026	1.95203
490.78675	1.95338
488.73325	1.95254
486.67975	1.93998
484.62625	1.91990
482.57275	1.90946
480.51925	1.91338
478.46575	1.91351
476.41225	1.90254
474.35875	1.89298
472.30525	1.89716
470.25174	1.91291
468.19824	1.92624
466.14474	1.94178
464.09124	1.96109
462.03774	1.96594
459.98424	1.95464
457.93074	1.94671
455.87724	1.94880
453.82374	1.94910
451.77023	1.95753
449.71673	1.97784
447.66323	1.98258
445.60973	1.98200
443.55623	1.99349
441.50273	2.00052
439.44923	2.00207
437.39573	1.99854
435.34223	2.00127
433.28872	2.01531
431.23522	2.00902
429.18172	1.98838
427.12822	1.98124
425.07472	1.98604
423.02122	1.98281
420.96772	1.95088
418.91422	1.91597
416.86072	1.93228
414.80722	1.97231
412.75371	2.00097
410.70021	1.99535
408.64671	1.96894
406.59321	1.96176
404.53971	1.96170
402.48621	1.95045
400.43271	1.94179
398.37921	1.93855
