5996.22311	1.77420
5994.16961	1.76981
5992.11611	1.75728
5990.06261	1.74847
5988.00911	1.75526
5985.95561	1.75828
5983.90211	1.74880
5981.84860	1.74515
5979.79510	1.75148
5977.74160	1.75104
5975.68810	1.74322
5973.63460	1.73844
5971.58110	1.73167
5969.52760	1.72951
5967.47410	1.74487
5965.42060	1.75267
5963.36710	1.74266
5961.31359	1.73640
5959.26009	1.73364
5957.20659	1.72652
5955.15309	1.72573
5953.09959	1.73300
5951.04609	1.73504
5948.99259	1.73453
5946.93909	1.74828
5944.88559	1.75945
5942.83208	1.74228
5940.77858	1.72129
5938.72508	1.72083
5936.67158	1.73485
5934.61808	1.75332
5932.56458	1.75522
5930.51108	1.73592
5928.45758	1.72388
5926.40408	1.72184
5924.35058	1.71451
5922.29707	1.70713
5920.24357	1.70767
5918.19007	1.72079
5916.13657	1.74701
5914.08307	1.77271
5912.02957	1.77544
5909.97607	1.75773
5907.92257	1.74481
5905.86907	1.74766
5903.81556	1.75532
5901.76206	1.75587
5899.70856	1.74838
5897.65506	1.74463
5895.60156	1.74902
5893.54806	1.75471
5891.49456	1.76093
5889.44106	1.76016
5887.38756	1.75192
5885.33405	1.74706
5883.28055	1.74368
5881.22705	1.74191
5879.17355	1.74722
5877.12005	1.75556
5875.06655	1.76240
5873.01305	1.76733
5870.95955	1.76440
5868.90605	1.76238
5866.85255	1.76362
5864.79904	1.76157
5862.74554	1.75825
5860.69204	1.74652
5858.63854	1.72958
5856.58504	1.72693
5854.53154	1.73164
5852.47804	1.73153
5850.42454	1.73336
5848.37104	1.73581
5846.31753	1.74784
5844.26403	1.76674
5842.21053	1.76411
5840.15703	1.75198
5838.10353	1.75151
5836.05003	1.75837
5833.99653	1.76845
5831.94303	1.76959
5829.88953	1.75827
5827.83602	1.74936
5825.78252	1.74197
5823.72902	1.72962
5821.67552	1.72586
5819.62202	1.73048
5817.56852	1.72931
5815.51502	1.73571
5813.46152	1.75550
5811.40802	1.76828
5809.35452	1.75956
5807.30101	1.74553
5805.24751	1.74832
5803.19401	1.75754
5801.14051	1.75266
5799.08701	1.74318
5797.03351	1.73697
5794.98001	1.73218
5792.92651	1.73745
5790.87301	1.74576
5788.81950	1.75124
5786.76600	1.76345
5784.71250	1.77186
5782.65900	1.76391
5780.60550	1.74954
5778.55200	1.74674
5776.49850	1.75402
5774.44500	1.75474
5772.39150	1.75667
5770.33800	1.77220
5768.28449	1.79141
5766.23099	1.79634
5764.17749	1.78379
5762.12399	1.75925
5760.07049	1.73476
5758.01699	1.72169
5755.96349	1.72605
5753.90999	1.74931
5751.85649	1.76684
5749.80298	1.76828
5747.74948	1.77021
5745.69598	1.77221
5743.64248	1.76990
5741.58898	1.75760
5739.53548	1.73991
5737.48198	1.73069
5735.42848	1.73546
5733.37498	1.74528
5731.32147	1.74954
5729.26797	1.74673
5727.21447	1.74711
5725.16097	1.75919
5723.10747	1.76875
5721.05397	1.76434
5719.00047	1.75226
5716.94697	1.74988
5714.89347	1.76217
5712.83997	1.77177
5710.78646	1.77061
5708.73296	1.76323
5706.67946	1.75820
5704.62596	1.75836
5702.57246	1.75205
5700.51896	1.74081
5698.46546	1.73931
5696.41196	1.74284
5694.35846	1.74284
5692.30495	1.75158
5690.25145	1.76276
5688.19795	1.75567
5686.14445	1.74412
5684.09095	1.74838
5682.03745	1.75941
5679.98395	1.76267
5677.93045	1.76145
5675.87695	1.76138
5673.82345	1.75385
5671.76994	1.74186
5669.71644	1.74342
5667.66294	1.75866
5665.60944	1.76695
5663.55594	1.76438
5661.50244	1.76245
5659.44894	1.75830
5657.39544	1.75263
5655.34194	1.74914
5653.28843	1.74701
5651.23493	1.75258
5649.18143	1.76541
5647.12793	1.77097
5645.07443	1.75990
5643.02093	1.74185
5640.96743	1.73419
5638.91393	1.74130
5636.86043	1.75369
5634.80692	1.76038
5632.75342	1.76569
5630.69992	1.77530
5628.64642	1.76742
5626.59292	1.74292
5624.53942	1.73591
5622.48592	1.74567
5620.43242	1.74716
5618.37892	1.74340
5616.32542	1.74216
5614.27191	1.73831
5612.21841	1.73615
5610.16491	1.73971
5608.11141	1.74347
5606.05791	1.74055
5604.00441	1.72878
5601.95091	1.72632
5599.89741	1.74206
5597.84391	1.75469
5595.79040	1.75844
5593.73690	1.76386
5591.68340	1.76736
5589.62990	1.77032
5587.57640	1.77208
5585.52290	1.76216
5583.46940	1.74605
5581.41590	1.74345
5579.36240	1.75630
5577.30889	1.77240
5575.25539	1.78212
5573.20189	1.77663
5571.14839	1.76092
5569.09489	1.74608
5567.04139	1.73863
5564.98789	1.74436
5562.93439	1.75152
5560.88089	1.74961
5558.82739	1.75088
5556.77388	1.75694
5554.72038	1.75806
5552.66688	1.76041
5550.61338	1.76494
5548.55988	1.76483
5546.50638	1.76462
5544.45288	1.76323
5542.39938	1.75572
5540.34588	1.75044
5538.29237	1.75339
5536.23887	1.75812
5534.18537	1.75594
5532.13187	1.74996
5530.07837	1.75170
5528.02487	1.76082
5525.97137	1.76511
5523.91787	1.76254
5521.86437	1.76026
5519.81087	1.76416
5517.75736	1.77284
5515.70386	1.76815
5513.65036	1.75146
5511.59686	1.74674
5509.54336	1.75536
5507.48986	1.75933
5505.43636	1.75470
5503.38286	1.75201
5501.32936	1.75623
5499.27585	1.75982
5497.22235	1.75289
5495.16885	1.74623
5493.11535	1.75142
5491.06185	1.75908
5489.00835	1.76539
5486.95485	1.77235
5484.90135	1.76994
5482.84785	1.75772
5480.79434	1.74779
5478.74084	1.74457
5476.68734	1.75383
5474.63384	1.77089
5472.58034	1.77259
5470.52684	1.76407
5468.47334	1.75595
5466.41984	1.75226
5464.36634	1.75536
5462.31284	1.75386
5460.25933	1.75167
5458.20583	1.75317
5456.15233	1.75285
5454.09883	1.75887
5452.04533	1.76995
5449.99183	1.76975
5447.93833	1.75942
5445.88483	1.75175
5443.83133	1.75232
5441.77782	1.76506
5439.72432	1.77568
5437.67082	1.76759
5435.61732	1.75489
5433.56382	1.75334
5431.51032	1.75250
5429.45682	1.74748
5427.40332	1.74921
5425.34982	1.75665
5423.29631	1.76038
5421.24281	1.75813
5419.18931	1.75921
5417.13581	1.76210
5415.08231	1.76181
5413.02881	1.76359
5410.97531	1.76416
5408.92181	1.76328
5406.86831	1.76415
5404.81481	1.76435
5402.76130	1.76112
5400.70780	1.75914
5398.65430	1.76216
5396.60080	1.76335
5394.54730	1.75899
5392.49380	1.75266
5390.44030	1.74495
5388.38680	1.73687
5386.33330	1.73989
5384.27979	1.75472
5382.22629	1.76143
5380.17279	1.75637
5378.11929	1.74877
5376.06579	1.75104
5374.01229	1.76695
5371.95879	1.77983
5369.90529	1.78247
5367.85179	1.77774
5365.79829	1.76792
5363.74478	1.76280
5361.69128	1.77067
5359.63778	1.77953
5357.58428	1.77726
5355.53078	1.77126
5353.47728	1.76308
5351.42378	1.75243
5349.37028	1.75013
5347.31678	1.75388
5345.26327	1.75722
5343.20977	1.76030
5341.15627	1.75855
5339.10277	1.75679
5337.04927	1.76162
5334.99577	1.76253
5332.94227	1.75768
5330.88877	1.75556
5328.83527	1.75893
5326.78176	1.76593
5324.72826	1.77597
5322.67476	1.78016
5320.62126	1.77439
5318.56776	1.76531
5316.51426	1.75472
5314.46076	1.74768
5312.40726	1.74704
5310.35376	1.75218
5308.30026	1.76267
5306.24675	1.76948
5304.19325	1.76501
5302.13975	1.75829
5300.08625	1.75863
5298.03275	1.76325
5295.97925	1.76298
5293.92575	1.75411
5291.87225	1.74929
5289.81875	1.75892
5287.76524	1.76692
5285.71174	1.76056
5283.65824	1.75421
5281.60474	1.75542
5279.55124	1.75549
5277.49774	1.75236
5275.44424	1.75527
5273.39074	1.76335
5271.33724	1.75891
5269.28374	1.74797
5267.23023	1.75360
5265.17673	1.76804
5263.12323	1.77378
5261.06973	1.77144
5259.01623	1.76957
5256.96273	1.77391
5254.90923	1.77874
5252.85573	1.77486
5250.80223	1.76900
5248.74872	1.76689
5246.69522	1.76573
5244.64172	1.76551
5242.58822	1.76758
5240.53472	1.77109
5238.48122	1.77177
5236.42772	1.76699
5234.37422	1.75977
5232.32072	1.75514
5230.26721	1.75747
5228.21371	1.76266
5226.16021	1.76587
5224.10671	1.76919
5222.05321	1.77119
5219.99971	1.76793
5217.94621	1.76249
5215.89271	1.76402
5213.83921	1.77445
5211.78571	1.77998
5209.73220	1.77356
5207.67870	1.77020
5205.62520	1.77765
5203.57170	1.77986
5201.51820	1.77380
5199.46470	1.77498
5197.41120	1.78245
5195.35770	1.78086
5193.30420	1.76985
5191.25069	1.76392
5189.19719	1.76982
5187.14369	1.77579
5185.09019	1.77014
5183.03669	1.76450
5180.98319	1.77089
5178.92969	1.77809
5176.87619	1.77644
5174.82269	1.77271
5172.76918	1.76624
5170.71568	1.75714
5168.66218	1.75610
5166.60868	1.76174
5164.55518	1.76477
5162.50168	1.76872
5160.44818	1.77637
5158.39468	1.77710
5156.34118	1.77214
5154.28768	1.77357
5152.23417	1.77732
5150.18067	1.77464
5148.12717	1.77305
5146.07367	1.77653
5144.02017	1.77502
5141.96667	1.76864
5139.91317	1.76813
5137.85967	1.77119
5135.80617	1.76715
5133.75266	1.75872
5131.69916	1.75705
5129.64566	1.76124
5127.59216	1.76575
5125.53866	1.77064
5123.48516	1.77547
5121.43166	1.77784
5119.37816	1.77913
5117.32466	1.77987
5115.27116	1.77860
5113.21765	1.77419
5111.16415	1.76572
5109.11065	1.76252
5107.05715	1.77272
5105.00365	1.78486
5102.95015	1.78354
5100.89665	1.77550
5098.84315	1.76998
5096.78965	1.76822
5094.73614	1.77277
5092.68264	1.77735
5090.62914	1.77869
5088.57564	1.78007
5086.52214	1.77895
5084.46864	1.77337
5082.41514	1.76721
5080.36164	1.76702
5078.30814	1.76783
5076.25463	1.76219
5074.20113	1.75832
5072.14763	1.76184
5070.09413	1.76668
5068.04063	1.76847
5065.98713	1.76761
5063.93363	1.76699
5061.88013	1.77050
5059.82663	1.77618
5057.77313	1.77645
5055.71962	1.77160
5053.66612	1.77298
5051.61262	1.78161
5049.55912	1.78652
5047.50562	1.78505
5045.45212	1.77915
5043.39862	1.77234
5041.34512	1.77139
5039.29162	1.77201
5037.23811	1.76682
5035.18461	1.76248
5033.13111	1.76545
5031.07761	1.77163
5029.02411	1.77353
5026.97061	1.76797
5024.91711	1.76333
5022.86361	1.76653
5020.81011	1.77157
5018.75661	1.77216
5016.70310	1.77043
5014.64960	1.77143
5012.59610	1.77669
5010.54260	1.78034
5008.48910	1.78273
5006.43560	1.78846
5004.38210	1.79085
5002.32860	1.78462
5000.27510	1.77689
4998.22159	1.77801
4996.16809	1.78615
4994.11459	1.78951
4992.06109	1.78477
4990.00759	1.77948
4987.95409	1.77578
4985.90059	1.77243
4983.84709	1.77265
4981.79359	1.77764
4979.74008	1.78467
4977.68658	1.78745
4975.63308	1.78396
4973.57958	1.78081
4971.52608	1.78243
4969.47258	1.78347
4967.41908	1.77801
4965.36558	1.77194
4963.31208	1.76920
4961.25858	1.77056
4959.20507	1.77756
4957.15157	1.78464
4955.09807	1.78696
4953.04457	1.78437
4950.99107	1.77925
4948.93757	1.77591
4946.88407	1.77386
4944.83057	1.77052
4942.77707	1.76752
4940.72356	1.76860
4938.67006	1.77295
4936.61656	1.77525
4934.56306	1.77571
4932.50956	1.77805
4930.45606	1.78029
4928.40256	1.77894
4926.34906	1.77798
4924.29556	1.77956
4922.24205	1.77799
4920.18855	1.77262
4918.13505	1.76886
4916.08155	1.77147
4914.02805	1.77706
4911.97455	1.77800
4909.92105	1.77531
4907.86755	1.77169
4905.81405	1.76877
4903.76055	1.77082
4901.70704	1.77849
4899.65354	1.78495
4897.60004	1.78122
4895.54654	1.77209
4893.49304	1.77040
4891.43954	1.77365
4889.38604	1.77063
4887.33254	1.76547
4885.27904	1.76806
4883.22553	1.77380
4881.17203	1.77278
4879.11853	1.76740
4877.06503	1.76674
4875.01153	1.77048
4872.95803	1.77296
4870.90453	1.77151
4868.85103	1.77137
4866.79753	1.77750
4864.74403	1.78353
4862.69052	1.78661
4860.63702	1.78881
4858.58352	1.78750
4856.53002	1.78251
4854.47652	1.77718
4852.42302	1.77097
4850.36952	1.76371
4848.31602	1.76151
4846.26252	1.76673
4844.20901	1.77634
4842.15551	1.78646
4840.10201	1.79116
4838.04851	1.79082
4835.99501	1.79220
4833.94151	1.79005
4831.88801	1.78279
4829.83451	1.78391
4827.78101	1.78999
4825.72750	1.78833
4823.67400	1.78118
4821.62050	1.77473
4819.56700	1.77419
4817.51350	1.78264
4815.46000	1.79076
4813.40650	1.78707
4811.35300	1.77940
4809.29950	1.77663
4807.24600	1.77564
4805.19249	1.77423
4803.13899	1.77117
4801.08549	1.76838
4799.03199	1.77174
4796.97849	1.77845
4794.92499	1.78077
4792.87149	1.77725
4790.81799	1.77399
4788.76449	1.77777
4786.71098	1.78591
4784.65748	1.78963
4782.60398	1.78648
4780.55048	1.78196
4778.49698	1.77924
4776.44348	1.77714
4774.38998	1.77618
4772.33648	1.77563
4770.28298	1.77589
4768.22947	1.77632
4766.17597	1.77381
4764.12247	1.77191
4762.06897	1.77425
4760.01547	1.77786
4757.96197	1.77784
4755.90847	1.77621
4753.85497	1.77709
4751.80147	1.77984
4749.74797	1.78251
4747.69446	1.78101
4745.64096	1.78113
4743.58746	1.78665
4741.53396	1.78779
4739.48046	1.78318
4737.42696	1.77840
4735.37346	1.77648
4733.31996	1.77835
4731.26646	1.78115
4729.21295	1.78430
4727.15945	1.78798
4725.10595	1.78945
4723.05245	1.78992
4720.99895	1.78948
4718.94545	1.78595
4716.89195	1.78443
4714.83845	1.78675
4712.78495	1.78880
4710.73145	1.79049
4708.67794	1.79104
4706.62444	1.78686
4704.57094	1.78169
4702.51744	1.78230
4700.46394	1.78283
4698.41044	1.77960
4696.35694	1.77989
4694.30344	1.78273
4692.24994	1.78094
4690.19643	1.77621
4688.14293	1.77672
4686.08943	1.78141
4684.03593	1.78366
4681.98243	1.78340
4679.92893	1.78145
4677.87543	1.77931
4675.82193	1.78084
4673.76843	1.78484
4671.71492	1.78642
4669.66142	1.78555
4667.60792	1.78809
4665.55442	1.79287
4663.50092	1.79086
4661.44742	1.78560
4659.39392	1.78419
4657.34042	1.78453
4655.28692	1.78431
4653.23342	1.78131
4651.17991	1.77708
4649.12641	1.77680
4647.07291	1.78182
4645.01941	1.78626
4642.96591	1.78440
4640.91241	1.78094
4638.85891	1.78005
4636.80541	1.77764
4634.75191	1.77562
4632.69840	1.77795
4630.64490	1.77969
4628.59140	1.78070
4626.53790	1.78424
4624.48440	1.78703
4622.43090	1.78659
4620.37740	1.78135
4618.32390	1.77527
4616.27040	1.77550
4614.21690	1.78035
4612.16339	1.78493
4610.10989	1.78710
4608.05639	1.78740
4606.00289	1.78832
4603.94939	1.78824
4601.89589	1.78584
4599.84239	1.78438
4597.78889	1.78675
4595.73539	1.79149
4593.68188	1.79051
4591.62838	1.78405
4589.57488	1.77954
4587.52138	1.77787
4585.46788	1.78065
4583.41438	1.78714
4581.36088	1.78826
4579.30738	1.78375
4577.25388	1.78370
4575.20037	1.78842
4573.14687	1.79193
4571.09337	1.79126
4569.03987	1.78715
4566.98637	1.78120
4564.93287	1.77579
4562.87937	1.77465
4560.82587	1.77851
4558.77237	1.78690
4556.71887	1.79411
4554.66536	1.79205
4552.61186	1.78551
4550.55836	1.78197
4548.50486	1.77966
4546.45136	1.78043
4544.39786	1.78552
4542.34436	1.78855
4540.29086	1.78707
4538.23736	1.78415
4536.18385	1.78367
4534.13035	1.78429
4532.07685	1.78347
4530.02335	1.78260
4527.96985	1.78135
4525.91635	1.78179
4523.86285	1.78668
4521.80935	1.78963
4519.75585	1.78591
4517.70234	1.78257
4515.64884	1.78471
4513.59534	1.78819
4511.54184	1.78887
4509.48834	1.78661
4507.43484	1.78474
4505.38134	1.78595
4503.32784	1.78679
4501.27434	1.78511
4499.22084	1.78412
4497.16733	1.78306
4495.11383	1.78051
4493.06033	1.78129
4491.00683	1.78862
4488.95333	1.79724
4486.89983	1.79979
4484.84633	1.79673
4482.79283	1.79398
4480.73933	1.79322
4478.68582	1.79302
4476.63232	1.79312
4474.57882	1.79468
4472.52532	1.79729
4470.47182	1.79888
4468.41832	1.79984
4466.36482	1.79877
4464.31132	1.79398
4462.25782	1.79012
4460.20432	1.78960
4458.15081	1.79106
4456.09731	1.79370
4454.04381	1.79640
4451.99031	1.79946
4449.93681	1.79909
4447.88331	1.79366
4445.82981	1.79287
4443.77631	1.79821
4441.72281	1.80253
4439.66930	1.80499
4437.61580	1.80455
4435.56230	1.80081
4433.50880	1.79897
4431.45530	1.79927
4429.40180	1.80087
4427.34830	1.80604
4425.29480	1.81118
4423.24130	1.81214
4421.18779	1.80954
4419.13429	1.80745
4417.08079	1.81046
4415.02729	1.81385
4412.97379	1.81083
4410.92029	1.80558
4408.86679	1.80296
4406.81329	1.80222
4404.75979	1.80398
4402.70629	1.80678
4400.65278	1.80826
4398.59928	1.81085
4396.54578	1.81439
4394.49228	1.81437
4392.43878	1.81157
4390.38528	1.81003
4388.33178	1.81065
4386.27828	1.81197
4384.22478	1.81253
4382.17127	1.81253
4380.11777	1.81341
4378.06427	1.81673
4376.01077	1.81951
4373.95727	1.81800
4371.90377	1.81535
4369.85027	1.81738
4367.79677	1.82328
4365.74327	1.82379
4363.68976	1.81708
4361.63626	1.81494
4359.58276	1.82119
4357.52926	1.82621
4355.47576	1.82548
4353.42226	1.82375
4351.36876	1.82742
4349.31526	1.83611
4347.26176	1.83958
4345.20826	1.83634
4343.15475	1.83568
4341.10125	1.83712
4339.04775	1.83629
4336.99425	1.83501
4334.94075	1.83353
4332.88725	1.83221
4330.83375	1.83271
4328.78025	1.83404
4326.72675	1.83420
4324.67324	1.83248
4322.61974	1.82952
4320.56624	1.82750
4318.51274	1.82769
4316.45924	1.82817
4314.40574	1.83006
4312.35224	1.83414
4310.29874	1.83623
4308.24524	1.83473
4306.19174	1.83001
4304.13823	1.82550
4302.08473	1.82493
4300.03123	1.82705
4297.97773	1.83145
4295.92423	1.83292
4293.87073	1.82786
4291.81723	1.82292
4289.76373	1.82173
4287.71023	1.82440
4285.65672	1.82973
4283.60322	1.83338
4281.54972	1.83364
4279.49622	1.83278
4277.44272	1.83102
4275.38922	1.82930
4273.33572	1.83145
4271.28222	1.83642
4269.22872	1.83883
4267.17521	1.83741
4265.12171	1.83608
4263.06821	1.83678
4261.01471	1.83745
4258.96121	1.83436
4256.90771	1.82920
4254.85421	1.82782
4252.80071	1.82894
4250.74721	1.82775
4248.69371	1.82675
4246.64020	1.82836
4244.58670	1.83014
4242.53320	1.83080
4240.47970	1.82660
4238.42620	1.82092
4236.37270	1.82333
4234.31920	1.83017
4232.26570	1.83290
4230.21220	1.83011
4228.15869	1.82432
4226.10519	1.82052
4224.05169	1.82137
4221.99819	1.82329
4219.94469	1.82394
4217.89119	1.82528
4215.83769	1.82708
4213.78419	1.82760
4211.73069	1.82621
4209.67719	1.82305
4207.62368	1.82238
4205.57018	1.82390
4203.51668	1.82419
4201.46318	1.82686
4199.40968	1.83116
4197.35618	1.83226
4195.30268	1.83163
4193.24918	1.83193
4191.19568	1.83182
4189.14217	1.82966
4187.08867	1.82810
4185.03517	1.82832
4182.98167	1.82730
4180.92817	1.82712
4178.87467	1.82907
4176.82117	1.82867
4174.76767	1.82775
4172.71417	1.82839
4170.66066	1.82781
4168.60716	1.82598
4166.55366	1.82536
4164.50016	1.82696
4162.44666	1.82862
4160.39316	1.82886
4158.33966	1.82988
4156.28616	1.83236
4154.23266	1.83319
4152.17916	1.83113
4150.12565	1.82837
4148.07215	1.82678
4146.01865	1.82726
4143.96515	1.82869
4141.91165	1.82912
4139.85815	1.82984
4137.80465	1.83068
4135.75115	1.82970
4133.69765	1.82768
4131.64414	1.82525
4129.59064	1.82345
4127.53714	1.82283
4125.48364	1.82101
4123.43014	1.82008
4121.37664	1.82471
4119.32314	1.83032
4117.26964	1.83276
4115.21614	1.83438
4113.16263	1.83484
4111.10913	1.83615
4109.05563	1.83886
4107.00213	1.83630
4104.94863	1.82961
4102.89513	1.82779
4100.84163	1.82933
4098.78813	1.82853
4096.73463	1.82806
4094.68113	1.82894
4092.62762	1.82849
4090.57412	1.83013
4088.52062	1.83687
4086.46712	1.83949
4084.41362	1.83406
4082.36012	1.83026
4080.30662	1.83033
4078.25312	1.83125
4076.19962	1.83293
4074.14611	1.83414
4072.09261	1.83334
4070.03911	1.83222
4067.98561	1.83267
4065.93211	1.83218
4063.87861	1.83004
4061.82511	1.82978
4059.77161	1.83097
4057.71811	1.83062
4055.66461	1.83072
4053.61110	1.83263
4051.55760	1.83355
4049.50410	1.83263
4047.45060	1.83148
4045.39710	1.83289
4043.34360	1.83853
4041.29010	1.84208
4039.23660	1.83907
4037.18310	1.83541
4035.12959	1.83388
4033.07609	1.83417
4031.02259	1.83679
4028.96909	1.83739
4026.91559	1.83437
4024.86209	1.83201
4022.80859	1.83103
4020.75509	1.83025
4018.70159	1.83102
4016.64808	1.83217
4014.59458	1.83255
4012.54108	1.83310
4010.48758	1.83342
4008.43408	1.83312
4006.38058	1.83093
4004.32708	1.82822
4002.27358	1.82817
4000.22008	1.82836
3998.16658	1.82708
3996.11307	1.82689
3994.05957	1.82657
3992.00607	1.82470
3989.95257	1.82349
3987.89907	1.82397
3985.84557	1.82688
3983.79207	1.82951
3981.73857	1.82855
3979.68507	1.82798
3977.63156	1.82918
3975.57806	1.82824
3973.52456	1.82648
3971.47106	1.82662
3969.41756	1.82698
3967.36406	1.82640
3965.31056	1.82573
3963.25706	1.82855
3961.20356	1.83456
3959.15006	1.83785
3957.09655	1.83668
3955.04305	1.83363
3952.98955	1.83326
3950.93605	1.83545
3948.88255	1.83731
3946.82905	1.83762
3944.77555	1.83386
3942.72205	1.82996
3940.66855	1.83163
3938.61504	1.83413
3936.56154	1.83247
3934.50804	1.82997
3932.45454	1.83169
3930.40104	1.83450
3928.34754	1.83202
3926.29404	1.82805
3924.24054	1.83115
3922.18704	1.83643
3920.13353	1.83531
3918.08003	1.83400
3916.02653	1.83563
3913.97303	1.83527
3911.91953	1.83377
3909.86603	1.83158
3907.81253	1.82567
3905.75903	1.81916
3903.70553	1.82214
3901.65203	1.83284
3899.59852	1.83783
3897.54502	1.83576
3895.49152	1.83041
3893.43802	1.82386
3891.38452	1.82253
3889.33102	1.82485
3887.27752	1.82472
3885.22402	1.82924
3883.17052	1.83416
3881.11701	1.83436
3879.06351	1.83847
3877.01001	1.83764
3874.95651	1.82921
3872.90301	1.82356
3870.84951	1.82281
3868.79601	1.82715
3866.74251	1.83228
3864.68901	1.83609
3862.63550	1.84043
3860.58200	1.83875
3858.52850	1.82952
3856.47500	1.81502
3854.42150	1.80784
3852.36800	1.83034
3850.31450	1.84698
3848.26100	1.84254
3846.20750	1.83409
3844.15400	1.82808
3842.10049	1.82139
3840.04699	1.81453
3837.99349	1.81661
3835.93999	1.82653
3833.88649	1.83257
3831.83299	1.83550
3829.77949	1.83687
3827.72599	1.83532
3825.67249	1.83124
3823.61898	1.82194
3821.56548	1.81816
3819.51198	1.82798
3817.45848	1.83159
3815.40498	1.83252
3813.35148	1.83453
3811.29798	1.83078
3809.24448	1.82453
3807.19098	1.82425
3805.13748	1.82698
3803.08397	1.82269
3801.03047	1.82572
3798.97697	1.83706
3796.92347	1.84315
3794.86997	1.84592
3792.81647	1.84294
3790.76297	1.83876
3788.70947	1.83684
3786.65597	1.83403
3784.60246	1.83270
3782.54896	1.83309
3780.49546	1.83511
3778.44196	1.84012
3776.38846	1.84026
3774.33496	1.83269
3772.28146	1.82325
3770.22796	1.82179
3768.17446	1.83143
3766.12095	1.83946
3764.06745	1.83923
3762.01395	1.83473
3759.96045	1.83399
3757.90695	1.83769
3755.85345	1.83464
3753.79995	1.82367
3751.74645	1.81920
3749.69295	1.83366
3747.63945	1.84114
3745.58594	1.84044
3743.53244	1.85283
3741.47894	1.85973
3739.42544	1.84962
3737.37194	1.83749
3735.31844	1.84287
3733.26494	1.85936
3731.21144	1.85934
3729.15794	1.84740
3727.10443	1.84015
3725.05093	1.84257
3722.99743	1.84530
3720.94393	1.84535
3718.89043	1.84506
3716.83693	1.84324
3714.78343	1.83926
3712.72993	1.83751
3710.67643	1.84570
3708.62292	1.85335
3706.56942	1.85333
3704.51592	1.85013
3702.46242	1.84655
3700.40892	1.84806
3698.35542	1.85304
3696.30192	1.85478
3694.24842	1.85174
3692.19492	1.84698
3690.14142	1.84990
3688.08791	1.86375
3686.03441	1.87023
3683.98091	1.86677
3681.92741	1.86097
3679.87391	1.85390
3677.82041	1.84796
3675.76691	1.85876
3673.71341	1.87799
3671.65991	1.87921
3669.60640	1.88171
3667.55290	1.89016
3665.49940	1.88923
3663.44590	1.88413
3661.39240	1.87923
3659.33890	1.87404
3657.28540	1.87568
3655.23190	1.88378
3653.17840	1.87855
3651.12490	1.86301
3649.07139	1.86808
3647.01789	1.89345
3644.96439	1.90345
3642.91089	1.89950
3640.85739	1.89463
3638.80389	1.89570
3636.75039	1.89684
3634.69689	1.89320
3632.64339	1.88671
3630.58988	1.88284
3628.53638	1.89648
3626.48288	1.91262
3624.42938	1.90888
3622.37588	1.89806
3620.32238	1.89413
3618.26888	1.90266
3616.21538	1.90961
3614.16188	1.90934
3612.10837	1.90944
3610.05487	1.91145
3608.00137	1.91682
3605.94787	1.92111
3603.89437	1.91905
3601.84087	1.91686
3599.78737	1.91794
3597.73387	1.91761
3595.68037	1.91754
3593.62687	1.92074
3591.57336	1.92089
3589.51986	1.91734
3587.46636	1.92258
3585.41286	1.93561
3583.35936	1.93763
3581.30586	1.93232
3579.25236	1.93171
3577.19886	1.93392
3575.14536	1.93320
3573.09185	1.93202
3571.03835	1.93011
3568.98485	1.92829
3566.93135	1.93391
3564.87785	1.94155
3562.82435	1.94296
3560.77085	1.94186
3558.71735	1.93938
3556.66385	1.93515
3554.61035	1.93240
3552.55684	1.93342
3550.50334	1.93492
3548.44984	1.93351
3546.39634	1.93537
3544.34284	1.94233
3542.28934	1.94305
3540.23584	1.93823
3538.18234	1.93593
3536.12884	1.93715
3534.07533	1.93689
3532.02183	1.93396
3529.96833	1.93486
3527.91483	1.93789
3525.86133	1.93581
3523.80783	1.93364
3521.75433	1.93420
3519.70083	1.93224
3517.64733	1.92836
3515.59382	1.92609
3513.54032	1.92524
3511.48682	1.92432
3509.43332	1.92333
3507.37982	1.92355
3505.32632	1.92458
3503.27282	1.92550
3501.21932	1.92773
3499.16582	1.92985
3497.11232	1.92995
3495.05881	1.92862
3493.00531	1.92560
3490.95181	1.92224
3488.89831	1.92216
3486.84481	1.92557
3484.79131	1.92824
3482.73781	1.92990
3480.68431	1.93128
3478.63081	1.92899
3476.57730	1.92438
3474.52380	1.92327
3472.47030	1.92656
3470.41680	1.92968
3468.36330	1.92837
3466.30980	1.92288
3464.25630	1.91992
3462.20280	1.92318
3460.14930	1.92695
3458.09579	1.92676
3456.04229	1.92401
3453.98879	1.92164
3451.93529	1.92171
3449.88179	1.92354
3447.82829	1.92636
3445.77479	1.92699
3443.72129	1.92548
3441.66779	1.92668
3439.61429	1.92902
3437.56078	1.92941
3435.50728	1.92815
3433.45378	1.92892
3431.40028	1.93026
3429.34678	1.92781
3427.29328	1.92793
3425.23978	1.93210
3423.18628	1.93313
3421.13278	1.93087
3419.07927	1.92810
3417.02577	1.92492
3414.97227	1.92335
3412.91877	1.92374
3410.86527	1.92396
3408.81177	1.92370
3406.75827	1.92364
3404.70477	1.92416
3402.65127	1.92394
3400.59777	1.92325
3398.54426	1.92424
3396.49076	1.92528
3394.43726	1.92387
3392.38376	1.92209
3390.33026	1.92244
3388.27676	1.92344
3386.22326	1.92291
3384.16976	1.92298
3382.11626	1.92570
3380.06275	1.92835
3378.00925	1.92991
3375.95575	1.93254
3373.90225	1.93424
3371.84875	1.93152
3369.79525	1.92822
3367.74175	1.92721
3365.68825	1.92552
3363.63475	1.92454
3361.58124	1.92663
3359.52774	1.92778
3357.47424	1.92787
3355.42074	1.93047
3353.36724	1.93142
3351.31374	1.92828
3349.26024	1.92641
3347.20674	1.92782
3345.15324	1.92844
3343.09974	1.92647
3341.04623	1.92382
3338.99273	1.92207
3336.93923	1.92301
3334.88573	1.92623
3332.83223	1.92754
3330.77873	1.92527
3328.72523	1.92346
3326.67173	1.92387
3324.61823	1.92378
3322.56472	1.92368
3320.51122	1.92566
3318.45772	1.92709
3316.40422	1.92641
3314.35072	1.92661
3312.29722	1.92738
3310.24372	1.92769
3308.19022	1.92812
3306.13672	1.92753
3304.08321	1.92603
3302.02971	1.92531
3299.97621	1.92518
3297.92271	1.92377
3295.86921	1.92230
3293.81571	1.92207
3291.76221	1.92172
3289.70871	1.92278
3287.65521	1.92597
3285.60171	1.92708
3283.54820	1.92601
3281.49470	1.92620
3279.44120	1.92755
3277.38770	1.92857
3275.33420	1.92824
3273.28070	1.92763
3271.22720	1.92876
3269.17370	1.93067
3267.12020	1.93114
3265.06669	1.92996
3263.01319	1.92718
3260.95969	1.92382
3258.90619	1.92303
3256.85269	1.92539
3254.79919	1.92746
3252.74569	1.92569
3250.69219	1.92145
3248.63869	1.91886
3246.58519	1.92056
3244.53168	1.92547
3242.47818	1.92810
3240.42468	1.92707
3238.37118	1.92612
3236.31768	1.92698
3234.26418	1.92806
3232.21068	1.92687
3230.15718	1.92426
3228.10368	1.92351
3226.05017	1.92411
3223.99667	1.92349
3221.94317	1.92242
3219.88967	1.92213
3217.83617	1.92100
3215.78267	1.92009
3213.72917	1.92277
3211.67567	1.92586
3209.62217	1.92583
3207.56866	1.92513
3205.51516	1.92505
3203.46166	1.92532
3201.40816	1.92621
3199.35466	1.92779
3197.30116	1.92839
3195.24766	1.92618
3193.19416	1.92334
3191.14066	1.92317
3189.08716	1.92542
3187.03365	1.92737
3184.98015	1.92695
3182.92665	1.92512
3180.87315	1.92553
3178.81965	1.92771
3176.76615	1.92702
3174.71265	1.92556
3172.65915	1.92770
3170.60565	1.92932
3168.55214	1.92721
3166.49864	1.92598
3164.44514	1.92796
3162.39164	1.92870
3160.33814	1.92639
3158.28464	1.92450
3156.23114	1.92514
3154.17764	1.92771
3152.12414	1.92914
3150.07064	1.92797
3148.01713	1.92599
3145.96363	1.92525
3143.91013	1.92683
3141.85663	1.92872
3139.80313	1.92942
3137.74963	1.93059
3135.69613	1.93185
3133.64263	1.93031
3131.58913	1.92593
3129.53562	1.92348
3127.48212	1.92465
3125.42862	1.92603
3123.37512	1.92779
3121.32162	1.93121
3119.26812	1.93235
3117.21462	1.92977
3115.16112	1.92730
3113.10762	1.92713
3111.05411	1.92815
3109.00061	1.92976
3106.94711	1.93105
3104.89361	1.93026
3102.84011	1.92974
3100.78661	1.93092
3098.73311	1.93033
3096.67961	1.92872
3094.62611	1.92978
3092.57261	1.93104
3090.51910	1.93038
3088.46560	1.93084
3086.41210	1.93158
3084.35860	1.93107
3082.30510	1.93105
3080.25160	1.93018
3078.19810	1.92835
3076.14460	1.92893
3074.09110	1.93171
3072.03759	1.93396
3069.98409	1.93471
3067.93059	1.93362
3065.87709	1.93204
3063.82359	1.93157
3061.77009	1.93152
3059.71659	1.93308
3057.66309	1.93649
3055.60959	1.93880
3053.55608	1.93817
3051.50258	1.93538
3049.44908	1.93462
3047.39558	1.93680
3045.34208	1.93746
3043.28858	1.93647
3041.23508	1.93690
3039.18158	1.93962
3037.12808	1.94424
3035.07458	1.94596
3033.02107	1.94356
3030.96757	1.94474
3028.91407	1.94871
3026.86057	1.94918
3024.80707	1.94920
3022.75357	1.95160
3020.70007	1.95286
3018.64657	1.95231
3016.59307	1.95460
3014.53956	1.96044
3012.48606	1.96478
3010.43256	1.96606
3008.37906	1.96676
3006.32556	1.96742
3004.27206	1.96607
3002.21856	1.96352
3000.16506	1.96380
2998.11156	1.96617
2996.05806	1.96731
2994.00455	1.96746
2991.95105	1.96697
2989.89755	1.96544
2987.84405	1.96241
2985.79055	1.95774
2983.73705	1.95318
2981.68355	1.94903
2979.63005	1.94411
2977.57655	1.93829
2975.52304	1.93294
2973.46954	1.93116
2971.41604	1.93237
2969.36254	1.93337
2967.30904	1.93495
2965.25554	1.93809
2963.20204	1.94020
2961.14854	1.93974
2959.09504	1.93888
2957.04153	1.93919
2954.98803	1.93898
2952.93453	1.93690
2950.88103	1.93442
2948.82753	1.93125
2946.77403	1.92597
2944.72053	1.92276
2942.66703	1.92325
2940.61353	1.92247
2938.56003	1.91915
2936.50652	1.91491
2934.45302	1.91115
2932.39952	1.90956
2930.34602	1.90816
2928.29252	1.90494
2926.23902	1.90254
2924.18552	1.90119
2922.13202	1.89748
2920.07852	1.89066
2918.02501	1.88365
2915.97151	1.88076
2913.91801	1.88271
2911.86451	1.88731
2909.81101	1.89400
2907.75751	1.90088
2905.70401	1.90412
2903.65051	1.90375
2901.59701	1.90281
2899.54351	1.90227
2897.49000	1.90165
2895.43650	1.90133
2893.38300	1.90086
2891.32950	1.90019
2889.27600	1.90097
2887.22250	1.90271
2885.16900	1.90336
2883.11550	1.90367
2881.06200	1.90642
2879.00849	1.91084
2876.95499	1.91307
2874.90149	1.91291
2872.84799	1.91200
2870.79449	1.91101
2868.74099	1.91010
2866.68749	1.90833
2864.63399	1.90550
2862.58049	1.90368
2860.52698	1.90423
2858.47348	1.90574
2856.41998	1.90584
2854.36648	1.90295
2852.31298	1.89769
2850.25948	1.89196
2848.20598	1.88858
2846.15248	1.88979
2844.09898	1.89502
2842.04548	1.90066
2839.99197	1.90276
2837.93847	1.90303
2835.88497	1.90488
2833.83147	1.90645
2831.77797	1.90560
2829.72447	1.90532
2827.67097	1.90707
2825.61747	1.90711
2823.56397	1.90590
2821.51046	1.90638
2819.45696	1.90634
2817.40346	1.90545
2815.34996	1.90639
2813.29646	1.90776
2811.24296	1.90698
2809.18946	1.90474
2807.13596	1.90258
2805.08246	1.90282
2803.02895	1.90569
2800.97545	1.90789
2798.92195	1.90861
2796.86845	1.90928
2794.81495	1.90976
2792.76145	1.90929
2790.70795	1.90875
2788.65445	1.90905
2786.60095	1.90991
2784.54745	1.91013
2782.49394	1.90877
2780.44044	1.90718
2778.38694	1.90740
2776.33344	1.90852
2774.27994	1.90842
2772.22644	1.90915
2770.17294	1.91118
2768.11944	1.91108
2766.06594	1.90959
2764.01243	1.90889
2761.95893	1.90883
2759.90543	1.90929
2757.85193	1.90981
2755.79843	1.90892
2753.74493	1.90715
2751.69143	1.90681
2749.63793	1.90825
2747.58443	1.90985
2745.53093	1.91075
2743.47742	1.91017
2741.42392	1.90814
2739.37042	1.90681
2737.31692	1.90660
2735.26342	1.90729
2733.20992	1.90988
2731.15642	1.91232
2729.10292	1.91186
2727.04942	1.91032
2724.99591	1.90896
2722.94241	1.90761
2720.88891	1.90705
2718.83541	1.90752
2716.78191	1.90847
2714.72841	1.90937
2712.67491	1.91056
2710.62141	1.91147
2708.56791	1.91104
2706.51440	1.91014
2704.46090	1.91026
2702.40740	1.91069
2700.35390	1.91025
2698.30040	1.91015
2696.24690	1.91158
2694.19340	1.91310
2692.13990	1.91280
2690.08640	1.91169
2688.03290	1.91179
2685.97939	1.91196
2683.92589	1.90938
2681.87239	1.90718
2679.81889	1.90902
2677.76539	1.91050
2675.71189	1.90971
2673.65839	1.90946
2671.60489	1.90965
2669.55139	1.90946
2667.49788	1.90980
2665.44438	1.91011
2663.39088	1.90818
2661.33738	1.90580
2659.28388	1.90589
2657.23038	1.90754
2655.17688	1.90928
2653.12338	1.90973
2651.06988	1.90898
2649.01637	1.90849
2646.96287	1.90835
2644.90937	1.90883
2642.85587	1.90882
2640.80237	1.90778
2638.74887	1.90739
2636.69537	1.90862
2634.64187	1.91117
2632.58837	1.91270
2630.53487	1.91106
2628.48136	1.90872
2626.42786	1.90937
2624.37436	1.91042
2622.32086	1.90960
2620.26736	1.90939
2618.21386	1.90993
2616.16036	1.91013
2614.10686	1.90964
2612.05336	1.90898
2609.99985	1.90871
2607.94635	1.90901
2605.89285	1.90910
2603.83935	1.90726
2601.78585	1.90582
2599.73235	1.90710
2597.67885	1.90950
2595.62535	1.91107
2593.57185	1.91058
2591.51835	1.90969
2589.46484	1.90997
2587.41134	1.90962
2585.35784	1.90852
2583.30434	1.90870
2581.25084	1.90964
2579.19734	1.90936
2577.14384	1.90873
2575.09034	1.90895
2573.03684	1.90864
2570.98333	1.90751
2568.92983	1.90757
2566.87633	1.90898
2564.82283	1.90924
2562.76933	1.90726
2560.71583	1.90488
2558.66233	1.90456
2556.60883	1.90703
2554.55533	1.91007
2552.50182	1.91110
2550.44832	1.91069
2548.39482	1.90994
2546.34132	1.90928
2544.28782	1.90918
2542.23432	1.90962
2540.18082	1.90952
2538.12732	1.90783
2536.07382	1.90579
2534.02032	1.90498
2531.96681	1.90589
2529.91331	1.90787
2527.85981	1.91051
2525.80631	1.91263
2523.75281	1.91108
2521.69931	1.90748
2519.64581	1.90666
2517.59231	1.90884
2515.53881	1.91133
2513.48530	1.91245
2511.43180	1.91256
2509.37830	1.91301
2507.32480	1.91332
2505.27130	1.91293
2503.21780	1.91306
2501.16430	1.91361
2499.11080	1.91402
2497.05730	1.91573
2495.00380	1.91726
2492.95029	1.91434
2490.89679	1.90957
2488.84329	1.90802
2486.78979	1.90943
2484.73629	1.91093
2482.68279	1.91080
2480.62929	1.91028
2478.57579	1.90981
2476.52229	1.91018
2474.46878	1.91342
2472.41528	1.91649
2470.36178	1.91623
2468.30828	1.91484
2466.25478	1.91426
2464.20128	1.91466
2462.14778	1.91582
2460.09428	1.91722
2458.04078	1.91785
2455.98727	1.91725
2453.93377	1.91728
2451.88027	1.91822
2449.82677	1.91802
2447.77327	1.91587
2445.71977	1.91402
2443.66627	1.91546
2441.61277	1.91881
2439.55927	1.92059
2437.50577	1.92032
2435.45226	1.91973
2433.39876	1.91899
2431.34526	1.91808
2429.29176	1.91850
2427.23826	1.91915
2425.18476	1.91875
2423.13126	1.91839
2421.07776	1.91771
2419.02426	1.91705
2416.97075	1.91797
2414.91725	1.91963
2412.86375	1.91968
2410.81025	1.91732
2408.75675	1.91558
2406.70325	1.91686
2404.64975	1.91881
2402.59625	1.91951
2400.54275	1.91913
2398.48924	1.91775
2396.43574	1.91742
2394.38224	1.91864
2392.32874	1.91873
2390.27524	1.91703
2388.22174	1.91465
2386.16824	1.91234
2384.11474	1.91025
2382.06124	1.90917
2380.00774	1.90951
2377.95423	1.90875
2375.90073	1.90685
2373.84723	1.90610
2371.79373	1.90406
2369.74023	1.90260
2367.68673	1.90718
2365.63323	1.91226
2363.57973	1.91271
2361.52623	1.91361
2359.47272	1.91860
2357.41922	1.92376
2355.36572	1.92548
2353.31222	1.92738
2351.25872	1.92716
2349.20522	1.92075
2347.15172	1.91218
2345.09822	1.90817
2343.04472	1.91026
2340.99122	1.91257
2338.93771	1.91421
2336.88421	1.91678
2334.83071	1.91536
2332.77721	1.90947
2330.72371	1.90789
2328.67021	1.91060
2326.61671	1.91124
2324.56321	1.91202
2322.50971	1.91290
2320.45620	1.91150
2318.40270	1.91046
2316.34920	1.90938
2314.29570	1.90812
2312.24220	1.90927
2310.18870	1.91024
2308.13520	1.90857
2306.08170	1.90750
2304.02820	1.90817
2301.97469	1.90931
2299.92119	1.90980
2297.86769	1.90977
2295.81419	1.90992
2293.76069	1.90853
2291.70719	1.90687
2289.65369	1.90722
2287.60019	1.90763
2285.54669	1.90655
2283.49319	1.90476
2281.43968	1.90395
2279.38618	1.90430
2277.33268	1.90454
2275.27918	1.90498
2273.22568	1.90587
2271.17218	1.90592
2269.11868	1.90499
2267.06518	1.90469
2265.01168	1.90511
2262.95817	1.90468
2260.90467	1.90461
2258.85117	1.90588
2256.79767	1.90685
2254.74417	1.90724
2252.69067	1.90699
2250.63717	1.90670
2248.58367	1.90705
2246.53017	1.90577
2244.47667	1.90284
2242.42316	1.90189
2240.36966	1.90323
2238.31616	1.90392
2236.26266	1.90453
2234.20916	1.90718
2232.15566	1.90879
2230.10216	1.90648
2228.04866	1.90377
2225.99516	1.90391
2223.94165	1.90528
2221.88815	1.90564
2219.83465	1.90566
2217.78115	1.90584
2215.72765	1.90587
2213.67415	1.90591
2211.62065	1.90556
2209.56715	1.90547
2207.51365	1.90640
2205.46014	1.90654
2203.40664	1.90496
2201.35314	1.90423
2199.29964	1.90516
2197.24614	1.90559
2195.19264	1.90491
2193.13914	1.90321
2191.08564	1.90189
2189.03214	1.90365
2186.97864	1.90681
2184.92513	1.90764
2182.87163	1.90615
2180.81813	1.90457
2178.76463	1.90456
2176.71113	1.90516
2174.65763	1.90419
2172.60413	1.90209
2170.55063	1.90051
2168.49713	1.90043
2166.44362	1.90216
2164.39012	1.90448
2162.33662	1.90546
2160.28312	1.90440
2158.22962	1.90302
2156.17612	1.90268
2154.12262	1.90307
2152.06912	1.90409
2150.01562	1.90480
2147.96211	1.90478
2145.90861	1.90480
2143.85511	1.90577
2141.80161	1.90820
2139.74811	1.91012
2137.69461	1.90930
2135.64111	1.90657
2133.58761	1.90417
2131.53411	1.90352
2129.48061	1.90456
2127.42710	1.90605
2125.37360	1.90708
2123.32010	1.90707
2121.26660	1.90628
2119.21310	1.90607
2117.15960	1.90655
2115.10610	1.90750
2113.05260	1.90869
2110.99910	1.90890
2108.94559	1.90809
2106.89209	1.90758
2104.83859	1.90712
2102.78509	1.90694
2100.73159	1.90835
2098.67809	1.90963
2096.62459	1.90895
2094.57109	1.90723
2092.51759	1.90558
2090.46409	1.90448
2088.41058	1.90538
2086.35708	1.90862
2084.30358	1.90975
2082.25008	1.90760
2080.19658	1.90652
2078.14308	1.90594
2076.08958	1.90453
2074.03608	1.90452
2071.98258	1.90582
2069.92907	1.90623
2067.87557	1.90615
2065.82207	1.90661
2063.76857	1.90618
2061.71507	1.90555
2059.66157	1.90711
2057.60807	1.90902
2055.55457	1.90916
2053.50107	1.90846
2051.44756	1.90784
2049.39406	1.90809
2047.34056	1.90883
2045.28706	1.90868
2043.23356	1.90841
2041.18006	1.90951
2039.12656	1.91085
2037.07306	1.91059
2035.01956	1.90908
2032.96606	1.90788
2030.91255	1.90839
2028.85905	1.91004
2026.80555	1.91076
2024.75205	1.90935
2022.69855	1.90822
2020.64505	1.90979
2018.59155	1.91208
2016.53805	1.91311
2014.48455	1.91254
2012.43104	1.91167
2010.37754	1.91198
2008.32404	1.91214
2006.27054	1.91131
2004.21704	1.91118
2002.16354	1.91218
2000.11004	1.91252
1998.05654	1.91128
1996.00304	1.90944
1993.94953	1.90863
1991.89603	1.91020
1989.84253	1.91285
1987.78903	1.91427
1985.73553	1.91451
1983.68203	1.91442
1981.62853	1.91560
1979.57503	1.91674
1977.52153	1.91572
1975.46803	1.91415
1973.41452	1.91255
1971.36102	1.91101
1969.30752	1.91160
1967.25402	1.91458
1965.20052	1.91678
1963.14702	1.91636
1961.09352	1.91521
1959.04002	1.91511
1956.98652	1.91634
1954.93301	1.91917
1952.87951	1.92197
1950.82601	1.92129
1948.77251	1.91766
1946.71901	1.91485
1944.66551	1.91502
1942.61201	1.91855
1940.55851	1.92175
1938.50501	1.92170
1936.45151	1.92124
1934.39800	1.92172
1932.34450	1.92246
1930.29100	1.92236
1928.23750	1.92036
1926.18400	1.91773
1924.13050	1.91804
1922.07700	1.92150
1920.02350	1.92299
1917.97000	1.92341
1915.91649	1.92439
1913.86299	1.92311
1911.80949	1.92067
1909.75599	1.91992
1907.70249	1.92182
1905.64899	1.92425
1903.59549	1.92543
1901.54199	1.92658
1899.48849	1.92816
1897.43498	1.92795
1895.38148	1.92781
1893.32798	1.92946
1891.27448	1.92987
1889.22098	1.93134
1887.16748	1.93326
1885.11398	1.93164
1883.06048	1.93043
1881.00698	1.93152
1878.95348	1.93211
1876.89997	1.93211
1874.84647	1.93332
1872.79297	1.93369
1870.73947	1.93141
1868.68597	1.93245
1866.63247	1.93796
1864.57897	1.93971
1862.52547	1.93886
1860.47197	1.93922
1858.41846	1.93985
1856.36496	1.93982
1854.31146	1.94038
1852.25796	1.94193
1850.20446	1.94362
1848.15096	1.94383
1846.09746	1.94198
1844.04396	1.94445
1841.99046	1.94995
1839.93696	1.94994
1837.88345	1.94954
1835.82995	1.95274
1833.77645	1.95451
1831.72295	1.95348
1829.66945	1.95530
1827.61595	1.95879
1825.56245	1.96068
1823.50895	1.96336
1821.45545	1.96453
1819.40194	1.96607
1817.34844	1.97027
1815.29494	1.97192
1813.24144	1.96952
1811.18794	1.96930
1809.13444	1.97373
1807.08094	1.97768
1805.02744	1.97998
1802.97394	1.98328
1800.92043	1.98916
1798.86693	1.99423
1796.81343	1.99369
1794.75993	1.99078
1792.70643	1.99527
1790.65293	2.00701
1788.59943	2.01072
1786.54593	2.00990
1784.49243	2.01461
1782.43893	2.02222
1780.38542	2.02980
1778.33192	2.03662
1776.27842	2.03862
1774.22492	2.03912
1772.17142	2.05001
1770.11792	2.06903
1768.06442	2.08287
1766.01092	2.09155
1763.95742	2.09747
1761.90391	2.11261
1759.85041	2.13720
1757.79691	2.15989
1755.74341	2.18615
1753.68991	2.21178
1751.63641	2.24019
1749.58291	2.27176
1747.52941	2.27165
1745.47591	2.22853
1743.42240	2.15308
1741.36890	2.06457
1739.31540	1.98307
1737.26190	1.92076
1735.20840	1.87072
1733.15490	1.82819
1731.10140	1.79429
1729.04790	1.76168
1726.99440	1.73223
1724.94090	1.70781
1722.88739	1.68824
1720.83389	1.67135
1718.78039	1.66214
1716.72689	1.67506
1714.67339	1.69458
1712.61989	1.70432
1710.56639	1.71267
1708.51289	1.72251
1706.45939	1.73590
1704.40588	1.75022
1702.35238	1.75637
1700.29888	1.76922
1698.24538	1.79302
1696.19188	1.81059
1694.13838	1.82194
1692.08488	1.82071
1690.03138	1.81754
1687.97788	1.81662
1685.92438	1.81437
1683.87087	1.82922
1681.81737	1.84954
1679.76387	1.85126
1677.71037	1.84636
1675.65687	1.84636
1673.60337	1.85218
1671.54987	1.85349
1669.49637	1.86003
1667.44287	1.87003
1665.38936	1.86867
1663.33586	1.86917
1661.28236	1.87752
1659.22886	1.87787
1657.17536	1.86727
1655.12186	1.85454
1653.06836	1.86674
1651.01486	1.88774
1648.96136	1.88214
1646.90785	1.88255
1644.85435	1.89406
1642.80085	1.89328
1640.74735	1.88608
1638.69385	1.87863
1636.64035	1.87966
1634.58685	1.89541
1632.53335	1.89900
1630.47985	1.89180
1628.42635	1.88883
1626.37284	1.88947
1624.31934	1.89012
1622.26584	1.89499
1620.21234	1.89470
1618.15884	1.89046
1616.10534	1.89967
1614.05184	1.90912
1611.99834	1.90640
1609.94484	1.90401
1607.89133	1.90605
1605.83783	1.90682
1603.78433	1.90542
1601.73083	1.90582
1599.67733	1.90710
1597.62383	1.90734
1595.57033	1.90799
1593.51683	1.90914
1591.46333	1.91038
1589.40982	1.91390
1587.35632	1.91878
1585.30282	1.92021
1583.24932	1.91936
1581.19582	1.91876
1579.14232	1.91580
1577.08882	1.91555
1575.03532	1.92437
1572.98182	1.92504
1570.92832	1.92015
1568.87481	1.92512
1566.82131	1.93172
1564.76781	1.93041
1562.71431	1.92045
1560.66081	1.90666
1558.60731	1.92154
1556.55381	1.94479
1554.50031	1.94095
1552.44681	1.93550
1550.39330	1.93387
1548.33980	1.93311
1546.28630	1.92907
1544.23280	1.92465
1542.17930	1.92462
1540.12580	1.93779
1538.07230	1.95171
1536.01880	1.94688
1533.96530	1.94329
1531.91180	1.94935
1529.85829	1.94921
1527.80479	1.94534
1525.75129	1.94474
1523.69779	1.94401
1521.64429	1.95007
1519.59079	1.96071
1517.53729	1.96493
1515.48379	1.96714
1513.43029	1.96478
1511.37678	1.95876
1509.32328	1.95343
1507.26978	1.96276
1505.21628	1.98898
1503.16278	1.99363
1501.10928	1.98753
1499.05578	1.98421
1497.00228	1.98955
1494.94878	1.99684
1492.89527	1.99502
1490.84177	1.99297
1488.78827	2.00270
1486.73477	2.00891
1484.68127	2.00097
1482.62777	1.98784
1480.57427	1.97474
1478.52077	1.96022
1476.46727	1.94344
1474.41377	1.93088
1472.36026	1.93001
1470.30676	1.92920
1468.25326	1.91801
1466.19976	1.90510
1464.14626	1.89997
1462.09276	1.89623
1460.03926	1.88777
1457.98576	1.88714
1455.93226	1.90122
1453.87875	1.89944
1451.82525	1.88542
1449.77175	1.87046
1447.71825	1.85704
1445.66475	1.84331
1443.61125	1.82815
1441.55775	1.81402
1439.50425	1.80111
1437.45075	1.79261
1435.39725	1.79117
1433.34374	1.78419
1431.29024	1.77140
1429.23674	1.76044
1427.18324	1.75167
1425.12974	1.74589
1423.07624	1.74306
1421.02274	1.73905
1418.96924	1.74070
1416.91574	1.74827
1414.86223	1.74864
1412.80873	1.74676
1410.75523	1.74842
1408.70173	1.75208
1406.64823	1.75695
1404.59473	1.76566
1402.54123	1.77434
1400.48773	1.78029
1398.43423	1.78908
1396.38072	1.80126
1394.32722	1.81641
1392.27372	1.82934
1390.22022	1.83409
1388.16672	1.83594
1386.11322	1.83748
1384.05972	1.83454
1382.00622	1.82994
1379.95272	1.82760
1377.89922	1.82613
1375.84571	1.82521
1373.79221	1.82916
1371.73871	1.83552
1369.68521	1.83792
1367.63171	1.83723
1365.57821	1.83367
1363.52471	1.82957
1361.47121	1.82898
1359.41771	1.82882
1357.36420	1.82800
1355.31070	1.82891
1353.25720	1.83088
1351.20370	1.83318
1349.15020	1.83625
1347.09670	1.83810
1345.04320	1.83892
1342.98970	1.84150
1340.93620	1.84650
1338.88269	1.85313
1336.82919	1.85895
1334.77569	1.86305
1332.72219	1.86688
1330.66869	1.87016
1328.61519	1.87266
1326.56169	1.87678
1324.50819	1.88302
1322.45469	1.88871
1320.40119	1.89371
1318.34768	1.89996
1316.29418	1.90585
1314.24068	1.91025
1312.18718	1.91558
1310.13368	1.92228
1308.08018	1.92951
1306.02668	1.93600
1303.97318	1.93910
1301.91968	1.93916
1299.86617	1.93875
1297.81267	1.94041
1295.75917	1.94354
1293.70567	1.94482
1291.65217	1.94620
1289.59867	1.95058
1287.54517	1.95483
1285.49167	1.95553
1283.43817	1.95567
1281.38467	1.95761
1279.33116	1.95824
1277.27766	1.95646
1275.22416	1.95318
1273.17066	1.94870
1271.11716	1.94623
1269.06366	1.94849
1267.01016	1.95200
1264.95666	1.95237
1262.90316	1.95006
1260.84965	1.94787
1258.79615	1.94695
1256.74265	1.94680
1254.68915	1.94609
1252.63565	1.94577
1250.58215	1.94820
1248.52865	1.95086
1246.47515	1.95079
1244.42165	1.94724
1242.36814	1.94052
1240.31464	1.93352
1238.26114	1.92776
1236.20764	1.92116
1234.15414	1.91243
1232.10064	1.90553
1230.04714	1.90311
1227.99364	1.90343
1225.94014	1.90537
1223.88664	1.90768
1221.83313	1.90977
1219.77963	1.91296
1217.72613	1.91808
1215.67263	1.92499
1213.61913	1.93261
1211.56563	1.93963
1209.51213	1.94636
1207.45863	1.95523
1205.40513	1.96479
1203.35162	1.96923
1201.29812	1.96838
1199.24462	1.96422
1197.19112	1.95623
1195.13762	1.94515
1193.08412	1.93338
1191.03062	1.92451
1188.97712	1.91868
1186.92362	1.91403
1184.87012	1.91056
1182.81661	1.90669
1180.76311	1.89982
1178.70961	1.88877
1176.65611	1.87272
1174.60261	1.85122
1172.54911	1.82697
1170.49561	1.80601
1168.44211	1.79136
1166.38861	1.77946
1164.33510	1.76736
1162.28160	1.75694
1160.22810	1.74895
1158.17460	1.74351
1156.12110	1.74144
1154.06760	1.73931
1152.01410	1.73307
1149.96060	1.72251
1147.90710	1.70926
1145.85359	1.69640
1143.80009	1.68596
1141.74659	1.67699
1139.69309	1.66995
1137.63959	1.66667
1135.58609	1.66625
1133.53259	1.66705
1131.47909	1.66919
1129.42559	1.67444
1127.37209	1.68273
1125.31858	1.69017
1123.26508	1.69533
1121.21158	1.69999
1119.15808	1.70378
1117.10458	1.70512
1115.05108	1.70419
1112.99758	1.70228
1110.94408	1.70138
1108.89058	1.70409
1106.83707	1.70921
1104.78357	1.71296
1102.73007	1.71613
1100.67657	1.72067
1098.62307	1.72457
1096.56957	1.72562
1094.51607	1.72375
1092.46257	1.72151
1090.40907	1.72205
1088.35556	1.72526
1086.30206	1.72910
1084.24856	1.73287
1082.19506	1.73660
1080.14156	1.74017
1078.08806	1.74424
1076.03456	1.74768
1073.98106	1.74918
1071.92756	1.75009
1069.87406	1.75088
1067.82055	1.75220
1065.76705	1.75446
1063.71355	1.75595
1061.66005	1.75681
1059.60655	1.75841
1057.55305	1.76039
1055.49955	1.76291
1053.44605	1.76701
1051.39255	1.77241
1049.33904	1.77736
1047.28554	1.78101
1045.23204	1.78476
1043.17854	1.78948
1041.12504	1.79406
1039.07154	1.79819
1037.01804	1.80275
1034.96454	1.80723
1032.91104	1.80778
1030.85754	1.80093
1028.80403	1.78753
1026.75053	1.76928
1024.69703	1.74986
1022.64353	1.73477
1020.59003	1.72446
1018.53653	1.71846
1016.48303	1.71761
1014.42953	1.71930
1012.37603	1.72244
1010.32252	1.72755
1008.26902	1.73208
1006.21552	1.73509
1004.16202	1.73813
1002.10852	1.74192
1000.05502	1.74595
998.00152	1.74953
995.94802	1.75364
993.89452	1.75836
991.84101	1.76165
989.78751	1.76330
987.73401	1.76607
985.68051	1.77102
983.62701	1.77556
981.57351	1.77777
979.52001	1.77788
977.46651	1.77665
975.41301	1.77571
973.35951	1.77602
971.30600	1.77601
969.25250	1.77500
967.19900	1.77411
965.14550	1.77270
963.09200	1.77013
961.03850	1.76839
958.98500	1.76751
956.93150	1.76653
954.87800	1.76672
952.82449	1.76873
950.77099	1.77140
948.71749	1.77287
946.66399	1.77204
944.61049	1.76962
942.55699	1.76814
940.50349	1.77022
938.44999	1.77513
936.39649	1.77961
934.34298	1.78131
932.28948	1.78052
930.23598	1.77952
928.18248	1.77995
926.12898	1.78022
924.07548	1.77809
922.02198	1.77624
919.96848	1.77744
917.91498	1.77893
915.86148	1.77882
913.80797	1.77834
911.75447	1.77865
909.70097	1.78022
907.64747	1.78150
905.59397	1.78089
903.54047	1.77983
901.48697	1.77961
899.43347	1.78120
897.37997	1.78461
895.32646	1.78615
893.27296	1.78497
891.21946	1.78473
889.16596	1.78596
887.11246	1.78653
885.05896	1.78885
883.00546	1.79265
880.95196	1.79417
878.89846	1.79493
876.84496	1.79605
874.79145	1.79952
872.73795	1.80547
870.68445	1.80723
868.63095	1.80261
866.57745	1.79812
864.52395	1.79674
862.47045	1.79361
860.41695	1.78766
858.36345	1.78193
856.30994	1.77861
854.25644	1.77824
852.20294	1.77835
850.14944	1.77867
848.09594	1.78103
846.04244	1.78438
843.98894	1.78581
841.93544	1.78480
839.88194	1.78491
837.82843	1.78701
835.77493	1.78667
833.72143	1.78453
831.66793	1.78396
829.61443	1.78214
827.56093	1.77836
825.50743	1.77560
823.45393	1.77479
821.40043	1.77612
819.34693	1.77764
817.29342	1.77821
815.23992	1.77973
813.18642	1.78150
811.13292	1.78169
809.07942	1.78369
807.02592	1.78983
804.97242	1.79381
802.91892	1.79082
800.86542	1.78541
798.81191	1.78310
796.75841	1.78477
794.70491	1.78841
792.65141	1.79213
790.59791	1.79382
788.54441	1.79391
786.49091	1.79624
784.43741	1.79870
782.38391	1.79733
780.33041	1.79607
778.27690	1.79897
776.22340	1.80314
774.16990	1.80315
772.11640	1.79896
770.06290	1.79609
768.00940	1.79684
765.95590	1.79897
763.90240	1.80150
761.84890	1.80375
759.79539	1.80314
757.74189	1.79931
755.68839	1.79358
753.63489	1.78579
751.58139	1.77840
749.52789	1.77478
747.47439	1.77331
745.42089	1.77177
743.36739	1.77040
741.31388	1.77158
739.26038	1.77648
737.20688	1.78003
735.15338	1.77893
733.09988	1.77529
731.04638	1.77230
728.99288	1.77399
726.93938	1.77917
724.88588	1.78274
722.83238	1.78208
720.77887	1.77955
718.72537	1.78056
716.67187	1.78473
714.61837	1.79203
712.56487	1.80133
710.51137	1.80417
708.45787	1.80085
706.40437	1.79819
704.35087	1.79511
702.29736	1.79023
700.24386	1.78679
698.19036	1.78378
696.13686	1.77640
694.08336	1.76095
692.02986	1.74471
689.97636	1.74041
687.92286	1.73824
685.86936	1.71249
683.81585	1.66922
681.76235	1.64507
679.70885	1.65478
677.65535	1.68213
675.60185	1.71030
673.54835	1.73264
671.49485	1.74574
669.44135	1.75614
667.38785	1.76982
665.33435	1.77390
663.28084	1.77429
661.22734	1.77922
659.17384	1.78411
657.12034	1.78668
655.06684	1.78678
653.01334	1.78211
650.95984	1.77804
648.90634	1.78270
646.85284	1.79456
644.79933	1.80200
642.74583	1.79993
640.69233	1.79825
638.63883	1.79843
636.58533	1.79367
634.53183	1.78886
632.47833	1.78861
630.42483	1.79004
628.37133	1.79160
626.31783	1.79622
624.26432	1.80580
622.21082	1.81233
620.15732	1.81194
618.10382	1.81267
616.05032	1.81513
613.99682	1.81212
611.94332	1.80710
609.88982	1.80887
607.83632	1.81409
605.78281	1.81565
603.72931	1.81214
601.67581	1.80537
599.62231	1.80261
597.56881	1.80681
595.51531	1.81332
593.46181	1.81972
591.40831	1.82724
589.35481	1.83752
587.30130	1.84670
585.24780	1.85001
583.19430	1.84835
581.14080	1.84451
579.08730	1.84109
577.03380	1.84287
574.98030	1.85243
572.92680	1.85762
570.87330	1.85023
568.81980	1.84171
566.76629	1.83869
564.71279	1.84073
562.65929	1.84896
560.60579	1.85518
558.55229	1.85275
556.49879	1.85394
554.44529	1.86225
552.39179	1.86627
550.33829	1.86879
548.28478	1.87518
546.23128	1.87745
544.17778	1.87690
542.12428	1.88130
540.07078	1.88412
538.01728	1.88081
535.96378	1.87666
533.91028	1.87898
531.85678	1.89034
529.80327	1.89624
527.74977	1.89020
525.69627	1.88349
523.64277	1.88215
521.58927	1.88597
519.53577	1.89190
517.48227	1.89637
515.42877	1.89516
513.37527	1.89276
511.32177	1.89384
509.26826	1.89166
507.21476	1.89200
505.16126	1.90615
503.10776	1.91595
501.05426	1.90917
499.00076	1.90010
496.94726	1.89881
494.89376	1.90312
492.84026	1.90250
490.78675	1.89511
488.73325	1.89331
486.67975	1.90150
484.62625	1.91323
482.57275	1.92194
480.51925	1.92157
478.46575	1.91651
476.41225	1.91795
474.35875	1.92160
472.30525	1.91212
470.25174	1.89930
468.19824	1.89331
466.14474	1.88519
464.09124	1.88273
462.03774	1.89083
459.98424	1.90870
457.93074	1.92775
455.87724	1.92061
453.82374	1.90901
451.77023	1.91980
449.71673	1.93677
447.66323	1.94075
445.60973	1.94253
443.55623	1.95841
441.50273	1.95713
439.44923	1.91601
437.39573	1.89391
435.34223	1.92136
433.28872	1.95603
431.23522	1.96501
429.18172	1.95659
427.12822	1.93440
425.07472	1.91693
423.02122	1.92782
420.96772	1.95824
418.91422	1.97002
416.86072	1.95114
414.80722	1.94580
412.75371	1.94439
410.70021	1.95192
408.64671	1.99510
406.59321	2.04306
404.53971	2.04194
402.48621	1.99578
400.43271	1.95044
398.37921	1.93476
