5996.22311	1.66951
5994.16961	1.68131
5992.11611	1.69092
5990.06261	1.69015
5988.00911	1.69724
5985.95561	1.70684
5983.90211	1.69729
5981.84860	1.68185
5979.79510	1.68420
5977.74160	1.68823
5975.68810	1.68114
5973.63460	1.67802
5971.58110	1.67447
5969.52760	1.66904
5967.47410	1.67414
5965.42060	1.68305
5963.36710	1.68009
5961.31359	1.67457
5959.26009	1.67312
5957.20659	1.66855
5955.15309	1.67119
5953.09959	1.68439
5951.04609	1.70242
5948.99259	1.70960
5946.93909	1.68739
5944.88559	1.66476
5942.83208	1.66248
5940.77858	1.66231
5938.72508	1.67051
5936.67158	1.68991
5934.61808	1.68933
5932.56458	1.67191
5930.51108	1.66547
5928.45758	1.67043
5926.40408	1.67510
5924.35058	1.68050
5922.29707	1.68547
5920.24357	1.68244
5918.19007	1.67898
5916.13657	1.68655
5914.08307	1.69885
5912.02957	1.69251
5909.97607	1.67467
5907.92257	1.67155
5905.86907	1.67731
5903.81556	1.67901
5901.76206	1.68067
5899.70856	1.68438
5897.65506	1.68119
5895.60156	1.67470
5893.54806	1.67873
5891.49456	1.68362
5889.44106	1.67584
5887.38756	1.67133
5885.33405	1.68265
5883.28055	1.69181
5881.22705	1.69058
5879.17355	1.68763
5877.12005	1.67023
5875.06655	1.65081
5873.01305	1.65098
5870.95955	1.66629
5868.90605	1.69345
5866.85255	1.71168
5864.79904	1.69778
5862.74554	1.66774
5860.69204	1.65534
5858.63854	1.67158
5856.58504	1.69025
5854.53154	1.68648
5852.47804	1.67245
5850.42454	1.66545
5848.37104	1.66527
5846.31753	1.67242
5844.26403	1.67499
5842.21053	1.66378
5840.15703	1.65487
5838.10353	1.65637
5836.05003	1.66409
5833.99653	1.66910
5831.94303	1.66999
5829.88953	1.67160
5827.83602	1.67319
5825.78252	1.67189
5823.72902	1.67370
5821.67552	1.68203
5819.62202	1.68766
5817.56852	1.68612
5815.51502	1.67713
5813.46152	1.66643
5811.40802	1.66461
5809.35452	1.66602
5807.30101	1.66799
5805.24751	1.68082
5803.19401	1.69324
5801.14051	1.68283
5799.08701	1.66018
5797.03351	1.65480
5794.98001	1.66988
5792.92651	1.67773
5790.87301	1.66656
5788.81950	1.66358
5786.76600	1.67801
5784.71250	1.68954
5782.65900	1.68744
5780.60550	1.67425
5778.55200	1.66182
5776.49850	1.66211
5774.44500	1.67300
5772.39150	1.68855
5770.33800	1.70113
5768.28449	1.70223
5766.23099	1.69579
5764.17749	1.69085
5762.12399	1.68448
5760.07049	1.67117
5758.01699	1.65960
5755.96349	1.65780
5753.90999	1.66413
5751.85649	1.67612
5749.80298	1.68658
5747.74948	1.69015
5745.69598	1.68538
5743.64248	1.67448
5741.58898	1.66892
5739.53548	1.67048
5737.48198	1.67387
5735.42848	1.68249
5733.37498	1.68931
5731.32147	1.68477
5729.26797	1.67879
5727.21447	1.67983
5725.16097	1.67798
5723.10747	1.67463
5721.05397	1.67949
5719.00047	1.68665
5716.94697	1.68853
5714.89347	1.68213
5712.83997	1.67804
5710.78646	1.67925
5708.73296	1.67283
5706.67946	1.66337
5704.62596	1.66101
5702.57246	1.66815
5700.51896	1.68160
5698.46546	1.69213
5696.41196	1.69771
5694.35846	1.69833
5692.30495	1.69091
5690.25145	1.68009
5688.19795	1.67300
5686.14445	1.67006
5684.09095	1.66948
5682.03745	1.67278
5679.98395	1.67789
5677.93045	1.67986
5675.87695	1.67900
5673.82345	1.67479
5671.76994	1.67129
5669.71644	1.67816
5667.66294	1.69001
5665.60944	1.69502
5663.55594	1.68939
5661.50244	1.67709
5659.44894	1.66880
5657.39544	1.66906
5655.34194	1.67281
5653.28843	1.67460
5651.23493	1.67147
5649.18143	1.67054
5647.12793	1.67414
5645.07443	1.67253
5643.02093	1.66951
5640.96743	1.66927
5638.91393	1.66642
5636.86043	1.66403
5634.80692	1.66488
5632.75342	1.66406
5630.69992	1.66291
5628.64642	1.65962
5626.59292	1.65447
5624.53942	1.65814
5622.48592	1.66503
5620.43242	1.66556
5618.37892	1.66192
5616.32542	1.66107
5614.27191	1.66726
5612.21841	1.66981
5610.16491	1.66237
5608.11141	1.65664
5606.05791	1.65693
5604.00441	1.65756
5601.95091	1.65875
5599.89741	1.66151
5597.84391	1.66269
5595.79040	1.66659
5593.73690	1.67562
5591.68340	1.68137
5589.62990	1.67802
5587.57640	1.66948
5585.52290	1.66855
5583.46940	1.67708
5581.41590	1.67773
5579.36240	1.66765
5577.30889	1.66328
5575.25539	1.66939
5573.20189	1.67246
5571.14839	1.66706
5569.09489	1.66448
5567.04139	1.66715
5564.98789	1.66881
5562.93439	1.67227
5560.88089	1.67528
5558.82739	1.67074
5556.77388	1.66619
5554.72038	1.66687
5552.66688	1.66734
5550.61338	1.66705
5548.55988	1.66679
5546.50638	1.66805
5544.45288	1.67349
5542.39938	1.67317
5540.34588	1.66827
5538.29237	1.66923
5536.23887	1.67011
5534.18537	1.66817
5532.13187	1.66900
5530.07837	1.67013
5528.02487	1.66999
5525.97137	1.67299
5523.91787	1.67395
5521.86437	1.67145
5519.81087	1.67392
5517.75736	1.67810
5515.70386	1.67965
5513.65036	1.67938
5511.59686	1.67675
5509.54336	1.67417
5507.48986	1.67075
5505.43636	1.66448
5503.38286	1.66218
5501.32936	1.66778
5499.27585	1.67252
5497.22235	1.66691
5495.16885	1.66056
5493.11535	1.66391
5491.06185	1.66863
5489.00835	1.66870
5486.95485	1.66955
5484.90135	1.67244
5482.84785	1.67268
5480.79434	1.67082
5478.74084	1.66834
5476.68734	1.66576
5474.63384	1.66662
5472.58034	1.66619
5470.52684	1.66181
5468.47334	1.65932
5466.41984	1.66084
5464.36634	1.66610
5462.31284	1.67326
5460.25933	1.67840
5458.20583	1.68076
5456.15233	1.68235
5454.09883	1.68349
5452.04533	1.67903
5449.99183	1.66816
5447.93833	1.65964
5445.88483	1.65900
5443.83133	1.66184
5441.77782	1.66548
5439.72432	1.66664
5437.67082	1.66400
5435.61732	1.66604
5433.56382	1.67243
5431.51032	1.67160
5429.45682	1.66190
5427.40332	1.65825
5425.34982	1.66404
5423.29631	1.66352
5421.24281	1.65787
5419.18931	1.65801
5417.13581	1.65912
5415.08231	1.65831
5413.02881	1.65828
5410.97531	1.65496
5408.92181	1.65795
5406.86831	1.67202
5404.81481	1.68041
5402.76130	1.67884
5400.70780	1.67301
5398.65430	1.66464
5396.60080	1.65717
5394.54730	1.65211
5392.49380	1.65362
5390.44030	1.66332
5388.38680	1.67170
5386.33330	1.67290
5384.27979	1.67037
5382.22629	1.66337
5380.17279	1.65400
5378.11929	1.65102
5376.06579	1.65694
5374.01229	1.66301
5371.95879	1.66144
5369.90529	1.65881
5367.85179	1.66153
5365.79829	1.66789
5363.74478	1.67344
5361.69128	1.67572
5359.63778	1.67738
5357.58428	1.67720
5355.53078	1.67440
5353.47728	1.66956
5351.42378	1.66569
5349.37028	1.66632
5347.31678	1.66368
5345.26327	1.66071
5343.20977	1.66578
5341.15627	1.66979
5339.10277	1.67120
5337.04927	1.67285
5334.99577	1.66951
5332.94227	1.66820
5330.88877	1.67283
5328.83527	1.67353
5326.78176	1.67323
5324.72826	1.67849
5322.67476	1.68017
5320.62126	1.67369
5318.56776	1.66987
5316.51426	1.67321
5314.46076	1.67656
5312.40726	1.67687
5310.35376	1.67432
5308.30026	1.67330
5306.24675	1.67701
5304.19325	1.67991
5302.13975	1.67583
5300.08625	1.67052
5298.03275	1.67057
5295.97925	1.67295
5293.92575	1.67498
5291.87225	1.67539
5289.81875	1.67540
5287.76524	1.67861
5285.71174	1.68618
5283.65824	1.69267
5281.60474	1.69234
5279.55124	1.68970
5277.49774	1.68972
5275.44424	1.69443
5273.39074	1.69810
5271.33724	1.69471
5269.28374	1.68747
5267.23023	1.68136
5265.17673	1.67895
5263.12323	1.67878
5261.06973	1.68093
5259.01623	1.68277
5256.96273	1.67888
5254.90923	1.67565
5252.85573	1.67783
5250.80223	1.67948
5248.74872	1.68462
5246.69522	1.69524
5244.64172	1.69942
5242.58822	1.69578
5240.53472	1.69140
5238.48122	1.68925
5236.42772	1.69040
5234.37422	1.69195
5232.32072	1.68934
5230.26721	1.68794
5228.21371	1.69412
5226.16021	1.70397
5224.10671	1.70758
5222.05321	1.69899
5219.99971	1.69120
5217.94621	1.69487
5215.89271	1.70321
5213.83921	1.70493
5211.78571	1.69903
5209.73220	1.69475
5207.67870	1.69772
5205.62520	1.70198
5203.57170	1.70295
5201.51820	1.70456
5199.46470	1.70493
5197.41120	1.70156
5195.35770	1.69721
5193.30420	1.69296
5191.25069	1.69339
5189.19719	1.69827
5187.14369	1.70167
5185.09019	1.70305
5183.03669	1.70425
5180.98319	1.70278
5178.92969	1.69931
5176.87619	1.69945
5174.82269	1.70372
5172.76918	1.70861
5170.71568	1.70985
5168.66218	1.70692
5166.60868	1.70416
5164.55518	1.70203
5162.50168	1.69951
5160.44818	1.69847
5158.39468	1.70130
5156.34118	1.70654
5154.28768	1.70649
5152.23417	1.70288
5150.18067	1.70794
5148.12717	1.71786
5146.07367	1.72149
5144.02017	1.71609
5141.96667	1.70203
5139.91317	1.69238
5137.85967	1.69681
5135.80617	1.70422
5133.75266	1.70867
5131.69916	1.71223
5129.64566	1.71170
5127.59216	1.70942
5125.53866	1.70914
5123.48516	1.70766
5121.43166	1.70446
5119.37816	1.70631
5117.32466	1.71381
5115.27116	1.71846
5113.21765	1.71446
5111.16415	1.70753
5109.11065	1.70423
5107.05715	1.70113
5105.00365	1.69907
5102.95015	1.70012
5100.89665	1.70127
5098.84315	1.70269
5096.78965	1.70509
5094.73614	1.70805
5092.68264	1.70990
5090.62914	1.70922
5088.57564	1.70808
5086.52214	1.70651
5084.46864	1.70379
5082.41514	1.70016
5080.36164	1.69727
5078.30814	1.70037
5076.25463	1.70608
5074.20113	1.70834
5072.14763	1.70855
5070.09413	1.70393
5068.04063	1.69923
5065.98713	1.70450
5063.93363	1.71156
5061.88013	1.70960
5059.82663	1.70464
5057.77313	1.70297
5055.71962	1.70266
5053.66612	1.70058
5051.61262	1.69951
5049.55912	1.70207
5047.50562	1.70282
5045.45212	1.70213
5043.39862	1.70563
5041.34512	1.70928
5039.29162	1.70939
5037.23811	1.70812
5035.18461	1.70438
5033.13111	1.70106
5031.07761	1.70321
5029.02411	1.70716
5026.97061	1.70878
5024.91711	1.71015
5022.86361	1.71108
5020.81011	1.71288
5018.75661	1.71689
5016.70310	1.71622
5014.64960	1.70782
5012.59610	1.69923
5010.54260	1.69994
5008.48910	1.70608
5006.43560	1.70782
5004.38210	1.70704
5002.32860	1.70460
5000.27510	1.69910
4998.22159	1.69418
4996.16809	1.69405
4994.11459	1.70158
4992.06109	1.71085
4990.00759	1.71155
4987.95409	1.70466
4985.90059	1.69703
4983.84709	1.69351
4981.79359	1.69597
4979.74008	1.69996
4977.68658	1.70252
4975.63308	1.70477
4973.57958	1.70604
4971.52608	1.70756
4969.47258	1.71121
4967.41908	1.71300
4965.36558	1.70905
4963.31208	1.70581
4961.25858	1.70924
4959.20507	1.71398
4957.15157	1.71496
4955.09807	1.71402
4953.04457	1.71388
4950.99107	1.71329
4948.93757	1.70973
4946.88407	1.70589
4944.83057	1.70238
4942.77707	1.69793
4940.72356	1.69729
4938.67006	1.69924
4936.61656	1.69757
4934.56306	1.69438
4932.50956	1.69425
4930.45606	1.70055
4928.40256	1.70948
4926.34906	1.71400
4924.29556	1.71533
4922.24205	1.71388
4920.18855	1.71322
4918.13505	1.71226
4916.08155	1.70610
4914.02805	1.70194
4911.97455	1.70366
4909.92105	1.70816
4907.86755	1.71181
4905.81405	1.71218
4903.76055	1.71086
4901.70704	1.71001
4899.65354	1.70891
4897.60004	1.70533
4895.54654	1.70231
4893.49304	1.70303
4891.43954	1.70536
4889.38604	1.70708
4887.33254	1.70857
4885.27904	1.71047
4883.22553	1.71116
4881.17203	1.71106
4879.11853	1.71119
4877.06503	1.71095
4875.01153	1.71267
4872.95803	1.71290
4870.90453	1.70729
4868.85103	1.70195
4866.79753	1.70194
4864.74403	1.70703
4862.69052	1.71306
4860.63702	1.71556
4858.58352	1.71357
4856.53002	1.70914
4854.47652	1.70690
4852.42302	1.70792
4850.36952	1.71106
4848.31602	1.71629
4846.26252	1.71979
4844.20901	1.71834
4842.15551	1.71648
4840.10201	1.71606
4838.04851	1.71391
4835.99501	1.71072
4833.94151	1.70956
4831.88801	1.70999
4829.83451	1.71224
4827.78101	1.72023
4825.72750	1.72794
4823.67400	1.72374
4821.62050	1.71136
4819.56700	1.70310
4817.51350	1.70082
4815.46000	1.69921
4813.40650	1.69994
4811.35300	1.70487
4809.29950	1.70748
4807.24600	1.70543
4805.19249	1.70581
4803.13899	1.70901
4801.08549	1.71016
4799.03199	1.70956
4796.97849	1.70897
4794.92499	1.71041
4792.87149	1.71191
4790.81799	1.70880
4788.76449	1.70453
4786.71098	1.70574
4784.65748	1.70856
4782.60398	1.70686
4780.55048	1.70504
4778.49698	1.70616
4776.44348	1.70736
4774.38998	1.70924
4772.33648	1.71278
4770.28298	1.71157
4768.22947	1.70597
4766.17597	1.70784
4764.12247	1.71680
4762.06897	1.72109
4760.01547	1.71640
4757.96197	1.70989
4755.90847	1.70981
4753.85497	1.71272
4751.80147	1.71284
4749.74797	1.71349
4747.69446	1.71368
4745.64096	1.70965
4743.58746	1.70529
4741.53396	1.70397
4739.48046	1.70490
4737.42696	1.70599
4735.37346	1.70510
4733.31996	1.70395
4731.26646	1.70629
4729.21295	1.70720
4727.15945	1.70316
4725.10595	1.70285
4723.05245	1.70820
4720.99895	1.71076
4718.94545	1.70750
4716.89195	1.70330
4714.83845	1.70442
4712.78495	1.71008
4710.73145	1.71193
4708.67794	1.70883
4706.62444	1.70574
4704.57094	1.70376
4702.51744	1.70318
4700.46394	1.70445
4698.41044	1.70603
4696.35694	1.70750
4694.30344	1.71059
4692.24994	1.71208
4690.19643	1.71006
4688.14293	1.70779
4686.08943	1.70690
4684.03593	1.70692
4681.98243	1.70537
4679.92893	1.70365
4677.87543	1.70510
4675.82193	1.70825
4673.76843	1.70904
4671.71492	1.70650
4669.66142	1.70571
4667.60792	1.70788
4665.55442	1.70994
4663.50092	1.71192
4661.44742	1.71224
4659.39392	1.71125
4657.34042	1.71072
4655.28692	1.70825
4653.23342	1.70394
4651.17991	1.70161
4649.12641	1.70228
4647.07291	1.70483
4645.01941	1.70957
4642.96591	1.71433
4640.91241	1.71510
4638.85891	1.71052
4636.80541	1.70443
4634.75191	1.70250
4632.69840	1.70376
4630.64490	1.70527
4628.59140	1.70681
4626.53790	1.70774
4624.48440	1.70703
4622.43090	1.70625
4620.37740	1.70813
4618.32390	1.70871
4616.27040	1.70472
4614.21690	1.70165
4612.16339	1.70286
4610.10989	1.70421
4608.05639	1.70361
4606.00289	1.70290
4603.94939	1.70193
4601.89589	1.70078
4599.84239	1.70212
4597.78889	1.70616
4595.73539	1.70866
4593.68188	1.70845
4591.62838	1.70652
4589.57488	1.70283
4587.52138	1.70016
4585.46788	1.69995
4583.41438	1.70112
4581.36088	1.70153
4579.30738	1.70081
4577.25388	1.70151
4575.20037	1.70176
4573.14687	1.69970
4571.09337	1.69855
4569.03987	1.70061
4566.98637	1.70401
4564.93287	1.70536
4562.87937	1.70419
4560.82587	1.70436
4558.77237	1.70790
4556.71887	1.70813
4554.66536	1.70212
4552.61186	1.69863
4550.55836	1.70143
4548.50486	1.70381
4546.45136	1.70243
4544.39786	1.70191
4542.34436	1.70435
4540.29086	1.70602
4538.23736	1.70396
4536.18385	1.70109
4534.13035	1.70228
4532.07685	1.70503
4530.02335	1.70414
4527.96985	1.70323
4525.91635	1.70551
4523.86285	1.70751
4521.80935	1.70725
4519.75585	1.70434
4517.70234	1.70059
4515.64884	1.70129
4513.59534	1.70591
4511.54184	1.70660
4509.48834	1.70300
4507.43484	1.70152
4505.38134	1.70189
4503.32784	1.70123
4501.27434	1.70058
4499.22084	1.70150
4497.16733	1.70426
4495.11383	1.70684
4493.06033	1.70678
4491.00683	1.70656
4488.95333	1.70859
4486.89983	1.70991
4484.84633	1.70859
4482.79283	1.70804
4480.73933	1.70844
4478.68582	1.70524
4476.63232	1.70190
4474.57882	1.70424
4472.52532	1.70888
4470.47182	1.71130
4468.41832	1.71240
4466.36482	1.71165
4464.31132	1.71056
4462.25782	1.71233
4460.20432	1.71292
4458.15081	1.71245
4456.09731	1.71581
4454.04381	1.71820
4451.99031	1.71651
4449.93681	1.71499
4447.88331	1.71314
4445.82981	1.71132
4443.77631	1.71121
4441.72281	1.71123
4439.66930	1.71152
4437.61580	1.71125
4435.56230	1.71049
4433.50880	1.71136
4431.45530	1.71321
4429.40180	1.71499
4427.34830	1.71640
4425.29480	1.71854
4423.24130	1.72093
4421.18779	1.72180
4419.13429	1.72380
4417.08079	1.72547
4415.02729	1.72303
4412.97379	1.72060
4410.92029	1.72109
4408.86679	1.72191
4406.81329	1.72223
4404.75979	1.72205
4402.70629	1.72059
4400.65278	1.71961
4398.59928	1.72002
4396.54578	1.72195
4394.49228	1.72462
4392.43878	1.72488
4390.38528	1.72413
4388.33178	1.72519
4386.27828	1.72752
4384.22478	1.73037
4382.17127	1.73223
4380.11777	1.73234
4378.06427	1.73296
4376.01077	1.73475
4373.95727	1.73489
4371.90377	1.73247
4369.85027	1.72888
4367.79677	1.72767
4365.74327	1.73084
4363.68976	1.73437
4361.63626	1.73697
4359.58276	1.74059
4357.52926	1.74290
4355.47576	1.74231
4353.42226	1.74094
4351.36876	1.74005
4349.31526	1.73993
4347.26176	1.74147
4345.20826	1.74339
4343.15475	1.74280
4341.10125	1.73922
4339.04775	1.73582
4336.99425	1.73488
4334.94075	1.73634
4332.88725	1.73911
4330.83375	1.74002
4328.78025	1.73891
4326.72675	1.73876
4324.67324	1.73999
4322.61974	1.74255
4320.56624	1.74421
4318.51274	1.74145
4316.45924	1.73709
4314.40574	1.73673
4312.35224	1.74064
4310.29874	1.74315
4308.24524	1.74175
4306.19174	1.73995
4304.13823	1.73903
4302.08473	1.73734
4300.03123	1.73500
4297.97773	1.73474
4295.92423	1.73584
4293.87073	1.73513
4291.81723	1.73297
4289.76373	1.73190
4287.71023	1.73422
4285.65672	1.73791
4283.60322	1.73910
4281.54972	1.74000
4279.49622	1.74040
4277.44272	1.73665
4275.38922	1.73531
4273.33572	1.73855
4271.28222	1.73860
4269.22872	1.73613
4267.17521	1.73604
4265.12171	1.73753
4263.06821	1.73791
4261.01471	1.73774
4258.96121	1.73848
4256.90771	1.74023
4254.85421	1.74075
4252.80071	1.73765
4250.74721	1.73535
4248.69371	1.73623
4246.64020	1.73619
4244.58670	1.73471
4242.53320	1.73435
4240.47970	1.73452
4238.42620	1.73447
4236.37270	1.73507
4234.31920	1.73575
4232.26570	1.73655
4230.21220	1.73805
4228.15869	1.73811
4226.10519	1.73595
4224.05169	1.73508
4221.99819	1.73665
4219.94469	1.73837
4217.89119	1.74085
4215.83769	1.74342
4213.78419	1.74146
4211.73069	1.73675
4209.67719	1.73523
4207.62368	1.73657
4205.57018	1.73736
4203.51668	1.73708
4201.46318	1.73779
4199.40968	1.73904
4197.35618	1.73851
4195.30268	1.73686
4193.24918	1.73726
4191.19568	1.73936
4189.14217	1.73894
4187.08867	1.73667
4185.03517	1.73402
4182.98167	1.73132
4180.92817	1.73331
4178.87467	1.73814
4176.82117	1.73840
4174.76767	1.73712
4172.71417	1.73987
4170.66066	1.74423
4168.60716	1.74442
4166.55366	1.73963
4164.50016	1.73584
4162.44666	1.73550
4160.39316	1.73592
4158.33966	1.73684
4156.28616	1.73940
4154.23266	1.74193
4152.17916	1.74277
4150.12565	1.74173
4148.07215	1.73954
4146.01865	1.73894
4143.96515	1.74147
4141.91165	1.74530
4139.85815	1.74749
4137.80465	1.74554
4135.75115	1.74107
4133.69765	1.73893
4131.64414	1.73778
4129.59064	1.73603
4127.53714	1.73676
4125.48364	1.73912
4123.43014	1.74127
4121.37664	1.74279
4119.32314	1.74001
4117.26964	1.73528
4115.21614	1.73664
4113.16263	1.74051
4111.10913	1.74101
4109.05563	1.74056
4107.00213	1.74098
4104.94863	1.74204
4102.89513	1.74348
4100.84163	1.74380
4098.78813	1.74276
4096.73463	1.74385
4094.68113	1.74663
4092.62762	1.74680
4090.57412	1.74412
4088.52062	1.74241
4086.46712	1.74275
4084.41362	1.74320
4082.36012	1.74420
4080.30662	1.74548
4078.25312	1.74576
4076.19962	1.74409
4074.14611	1.74078
4072.09261	1.73958
4070.03911	1.74072
4067.98561	1.74020
4065.93211	1.74005
4063.87861	1.74201
4061.82511	1.74361
4059.77161	1.74565
4057.71811	1.74644
4055.66461	1.74391
4053.61110	1.74261
4051.55760	1.74570
4049.50410	1.75039
4047.45060	1.75145
4045.39710	1.74638
4043.34360	1.74049
4041.29010	1.73952
4039.23660	1.74212
4037.18310	1.74551
4035.12959	1.74915
4033.07609	1.75129
4031.02259	1.75018
4028.96909	1.74871
4026.91559	1.74812
4024.86209	1.74713
4022.80859	1.74613
4020.75509	1.74539
4018.70159	1.74485
4016.64808	1.74311
4014.59458	1.74215
4012.54108	1.74331
4010.48758	1.74187
4008.43408	1.73914
4006.38058	1.74117
4004.32708	1.74520
4002.27358	1.74548
4000.22008	1.74329
3998.16658	1.74285
3996.11307	1.74483
3994.05957	1.74548
3992.00607	1.74279
3989.95257	1.74088
3987.89907	1.74291
3985.84557	1.74573
3983.79207	1.74534
3981.73857	1.74403
3979.68507	1.74522
3977.63156	1.74568
3975.57806	1.74344
3973.52456	1.74214
3971.47106	1.74262
3969.41756	1.74325
3967.36406	1.74423
3965.31056	1.74481
3963.25706	1.74501
3961.20356	1.74632
3959.15006	1.74700
3957.09655	1.74571
3955.04305	1.74379
3952.98955	1.74309
3950.93605	1.74415
3948.88255	1.74441
3946.82905	1.74306
3944.77555	1.74181
3942.72205	1.74301
3940.66855	1.74776
3938.61504	1.75113
3936.56154	1.74864
3934.50804	1.74433
3932.45454	1.74349
3930.40104	1.74346
3928.34754	1.74286
3926.29404	1.74467
3924.24054	1.74639
3922.18704	1.74313
3920.13353	1.73828
3918.08003	1.73825
3916.02653	1.74277
3913.97303	1.74526
3911.91953	1.74359
3909.86603	1.74124
3907.81253	1.73880
3905.75903	1.73549
3903.70553	1.73574
3901.65203	1.74018
3899.59852	1.74312
3897.54502	1.74409
3895.49152	1.74146
3893.43802	1.73685
3891.38452	1.73778
3889.33102	1.74008
3887.27752	1.73751
3885.22402	1.73794
3883.17052	1.74197
3881.11701	1.74301
3879.06351	1.74206
3877.01001	1.73994
3874.95651	1.73800
3872.90301	1.73816
3870.84951	1.73952
3868.79601	1.74087
3866.74251	1.74102
3864.68901	1.74037
3862.63550	1.74076
3860.58200	1.74153
3858.52850	1.73794
3856.47500	1.72824
3854.42150	1.72327
3852.36800	1.73578
3850.31450	1.74355
3848.26100	1.74150
3846.20750	1.73827
3844.15400	1.73847
3842.10049	1.74054
3840.04699	1.73981
3837.99349	1.73976
3835.93999	1.74177
3833.88649	1.74225
3831.83299	1.74291
3829.77949	1.74331
3827.72599	1.74148
3825.67249	1.73969
3823.61898	1.73643
3821.56548	1.73433
3819.51198	1.73792
3817.45848	1.73787
3815.40498	1.73901
3813.35148	1.74327
3811.29798	1.74273
3809.24448	1.74005
3807.19098	1.74093
3805.13748	1.74302
3803.08397	1.74174
3801.03047	1.74267
3798.97697	1.74567
3796.92347	1.74673
3794.86997	1.74713
3792.81647	1.74605
3790.76297	1.74495
3788.70947	1.74352
3786.65597	1.74077
3784.60246	1.73997
3782.54896	1.73944
3780.49546	1.73812
3778.44196	1.73975
3776.38846	1.74073
3774.33496	1.73918
3772.28146	1.73685
3770.22796	1.73604
3768.17446	1.73942
3766.12095	1.74358
3764.06745	1.74537
3762.01395	1.74290
3759.96045	1.74095
3757.90695	1.74667
3755.85345	1.74973
3753.79995	1.74296
3751.74645	1.73798
3749.69295	1.74591
3747.63945	1.75013
3745.58594	1.74660
3743.53244	1.74946
3741.47894	1.75296
3739.42544	1.74984
3737.37194	1.74489
3735.31844	1.74296
3733.26494	1.74768
3731.21144	1.75405
3729.15794	1.75542
3727.10443	1.75475
3725.05093	1.75769
3722.99743	1.76200
3720.94393	1.76365
3718.89043	1.76469
3716.83693	1.76609
3714.78343	1.76529
3712.72993	1.76416
3710.67643	1.77036
3708.62292	1.77987
3706.56942	1.78428
3704.51592	1.78438
3702.46242	1.78516
3700.40892	1.78845
3698.35542	1.78912
3696.30192	1.78707
3694.24842	1.78524
3692.19492	1.78512
3690.14142	1.78897
3688.08791	1.79454
3686.03441	1.79522
3683.98091	1.79278
3681.92741	1.79005
3679.87391	1.78601
3677.82041	1.78215
3675.76691	1.78809
3673.71341	1.80016
3671.65991	1.80416
3669.60640	1.80329
3667.55290	1.79973
3665.49940	1.79612
3663.44590	1.79406
3661.39240	1.79253
3659.33890	1.79161
3657.28540	1.79335
3655.23190	1.79693
3653.17840	1.79508
3651.12490	1.78946
3649.07139	1.79309
3647.01789	1.80460
3644.96439	1.80847
3642.91089	1.80585
3640.85739	1.80339
3638.80389	1.80520
3636.75039	1.80837
3634.69689	1.80899
3632.64339	1.80613
3630.58988	1.80327
3628.53638	1.80935
3626.48288	1.81668
3624.42938	1.81441
3622.37588	1.80987
3620.32238	1.80944
3618.26888	1.81155
3616.21538	1.80935
3614.16188	1.80543
3612.10837	1.80559
3610.05487	1.80765
3608.00137	1.80943
3605.94787	1.81136
3603.89437	1.81090
3601.84087	1.80886
3599.78737	1.80898
3597.73387	1.81017
3595.68037	1.80954
3593.62687	1.80979
3591.57336	1.81151
3589.51986	1.81085
3587.46636	1.81042
3585.41286	1.81305
3583.35936	1.81437
3581.30586	1.81477
3579.25236	1.81493
3577.19886	1.81465
3575.14536	1.81466
3573.09185	1.81221
3571.03835	1.80765
3568.98485	1.80678
3566.93135	1.81197
3564.87785	1.81694
3562.82435	1.81884
3560.77085	1.81887
3558.71735	1.81632
3556.66385	1.81338
3554.61035	1.81201
3552.55684	1.81250
3550.50334	1.81377
3548.44984	1.81344
3546.39634	1.81450
3544.34284	1.82010
3542.28934	1.82329
3540.23584	1.82087
3538.18234	1.81830
3536.12884	1.81612
3534.07533	1.81194
3532.02183	1.80828
3529.96833	1.80753
3527.91483	1.80905
3525.86133	1.81136
3523.80783	1.81339
3521.75433	1.81440
3519.70083	1.81357
3517.64733	1.81042
3515.59382	1.80747
3513.54032	1.80752
3511.48682	1.81105
3509.43332	1.81573
3507.37982	1.81680
3505.32632	1.81395
3503.27282	1.81136
3501.21932	1.81170
3499.16582	1.81373
3497.11232	1.81496
3495.05881	1.81488
3493.00531	1.81481
3490.95181	1.81401
3488.89831	1.81206
3486.84481	1.81225
3484.79131	1.81416
3482.73781	1.81368
3480.68431	1.81251
3478.63081	1.81361
3476.57730	1.81565
3474.52380	1.81697
3472.47030	1.81697
3470.41680	1.81554
3468.36330	1.81456
3466.30980	1.81598
3464.25630	1.81669
3462.20280	1.81537
3460.14930	1.81399
3458.09579	1.81314
3456.04229	1.81385
3453.98879	1.81471
3451.93529	1.81533
3449.88179	1.81695
3447.82829	1.81797
3445.77479	1.81752
3443.72129	1.81670
3441.66779	1.81537
3439.61429	1.81327
3437.56078	1.81274
3435.50728	1.81504
3433.45378	1.81780
3431.40028	1.81767
3429.34678	1.81402
3427.29328	1.81012
3425.23978	1.80915
3423.18628	1.81142
3421.13278	1.81394
3419.07927	1.81362
3417.02577	1.81226
3414.97227	1.81181
3412.91877	1.81173
3410.86527	1.81179
3408.81177	1.81173
3406.75827	1.81083
3404.70477	1.81007
3402.65127	1.81097
3400.59777	1.81208
3398.54426	1.81239
3396.49076	1.81292
3394.43726	1.81377
3392.38376	1.81452
3390.33026	1.81452
3388.27676	1.81340
3386.22326	1.81244
3384.16976	1.81285
3382.11626	1.81335
3380.06275	1.81171
3378.00925	1.81044
3375.95575	1.81267
3373.90225	1.81418
3371.84875	1.81195
3369.79525	1.80977
3367.74175	1.80929
3365.68825	1.80956
3363.63475	1.81154
3361.58124	1.81343
3359.52774	1.81298
3357.47424	1.81226
3355.42074	1.81284
3353.36724	1.81415
3351.31374	1.81556
3349.26024	1.81606
3347.20674	1.81406
3345.15324	1.81050
3343.09974	1.80833
3341.04623	1.80864
3338.99273	1.80945
3336.93923	1.81048
3334.88573	1.81305
3332.83223	1.81466
3330.77873	1.81495
3328.72523	1.81544
3326.67173	1.81416
3324.61823	1.81083
3322.56472	1.80869
3320.51122	1.80851
3318.45772	1.80840
3316.40422	1.80852
3314.35072	1.80950
3312.29722	1.81112
3310.24372	1.81362
3308.19022	1.81577
3306.13672	1.81546
3304.08321	1.81295
3302.02971	1.81058
3299.97621	1.81097
3297.92271	1.81348
3295.86921	1.81460
3293.81571	1.81418
3291.76221	1.81444
3289.70871	1.81390
3287.65521	1.81234
3285.60171	1.81221
3283.54820	1.81302
3281.49470	1.81408
3279.44120	1.81415
3277.38770	1.81414
3275.33420	1.81593
3273.28070	1.81613
3271.22720	1.81478
3269.17370	1.81496
3267.12020	1.81492
3265.06669	1.81353
3263.01319	1.81287
3260.95969	1.81305
3258.90619	1.81264
3256.85269	1.81232
3254.79919	1.81309
3252.74569	1.81400
3250.69219	1.81457
3248.63869	1.81466
3246.58519	1.81456
3244.53168	1.81654
3242.47818	1.81908
3240.42468	1.81826
3238.37118	1.81539
3236.31768	1.81284
3234.26418	1.81111
3232.21068	1.81136
3230.15718	1.81190
3228.10368	1.81116
3226.05017	1.81159
3223.99667	1.81424
3221.94317	1.81653
3219.88967	1.81507
3217.83617	1.81121
3215.78267	1.80960
3213.72917	1.81172
3211.67567	1.81518
3209.62217	1.81726
3207.56866	1.81702
3205.51516	1.81493
3203.46166	1.81347
3201.40816	1.81264
3199.35466	1.81146
3197.30116	1.81208
3195.24766	1.81351
3193.19416	1.81382
3191.14066	1.81413
3189.08716	1.81386
3187.03365	1.81314
3184.98015	1.81312
3182.92665	1.81228
3180.87315	1.81037
3178.81965	1.81031
3176.76615	1.81178
3174.71265	1.81272
3172.65915	1.81358
3170.60565	1.81375
3168.55214	1.81312
3166.49864	1.81297
3164.44514	1.81275
3162.39164	1.81228
3160.33814	1.81335
3158.28464	1.81489
3156.23114	1.81413
3154.17764	1.81251
3152.12414	1.81221
3150.07064	1.81284
3148.01713	1.81356
3145.96363	1.81446
3143.91013	1.81503
3141.85663	1.81481
3139.80313	1.81487
3137.74963	1.81396
3135.69613	1.81239
3133.64263	1.81364
3131.58913	1.81544
3129.53562	1.81518
3127.48212	1.81599
3125.42862	1.81792
3123.37512	1.81926
3121.32162	1.82113
3119.26812	1.82177
3117.21462	1.81960
3115.16112	1.81734
3113.10762	1.81654
3111.05411	1.81679
3109.00061	1.81771
3106.94711	1.81754
3104.89361	1.81566
3102.84011	1.81502
3100.78661	1.81726
3098.73311	1.81987
3096.67961	1.82051
3094.62611	1.82095
3092.57261	1.82274
3090.51910	1.82407
3088.46560	1.82286
3086.41210	1.81994
3084.35860	1.81939
3082.30510	1.82138
3080.25160	1.82178
3078.19810	1.82057
3076.14460	1.81985
3074.09110	1.81968
3072.03759	1.81982
3069.98409	1.82028
3067.93059	1.82085
3065.87709	1.82133
3063.82359	1.82181
3061.77009	1.82207
3059.71659	1.82267
3057.66309	1.82440
3055.60959	1.82536
3053.55608	1.82360
3051.50258	1.82080
3049.44908	1.82047
3047.39558	1.82327
3045.34208	1.82542
3043.28858	1.82494
3041.23508	1.82440
3039.18158	1.82538
3037.12808	1.82567
3035.07458	1.82391
3033.02107	1.82378
3030.96757	1.82733
3028.91407	1.83142
3026.86057	1.83388
3024.80707	1.83545
3022.75357	1.83724
3020.70007	1.83909
3018.64657	1.84044
3016.59307	1.84158
3014.53956	1.84367
3012.48606	1.84613
3010.43256	1.84720
3008.37906	1.84791
3006.32556	1.84963
3004.27206	1.85218
3002.21856	1.85402
3000.16506	1.85360
2998.11156	1.85197
2996.05806	1.84920
2994.00455	1.84516
2991.95105	1.84230
2989.89755	1.83862
2987.84405	1.83207
2985.79055	1.82762
2983.73705	1.82590
2981.68355	1.82234
2979.63005	1.81646
2977.57655	1.81116
2975.52304	1.80912
2973.46954	1.81020
2971.41604	1.81127
2969.36254	1.81126
2967.30904	1.81202
2965.25554	1.81304
2963.20204	1.81291
2961.14854	1.81277
2959.09504	1.81334
2957.04153	1.81270
2954.98803	1.80895
2952.93453	1.80422
2950.88103	1.80137
2948.82753	1.80026
2946.77403	1.80069
2944.72053	1.80187
2942.66703	1.80173
2940.61353	1.80014
2938.56003	1.79816
2936.50652	1.79676
2934.45302	1.79503
2932.39952	1.79181
2930.34602	1.78875
2928.29252	1.78649
2926.23902	1.78465
2924.18552	1.78323
2922.13202	1.78153
2920.07852	1.77977
2918.02501	1.77918
2915.97151	1.77980
2913.91801	1.78046
2911.86451	1.78110
2909.81101	1.78202
2907.75751	1.78292
2905.70401	1.78414
2903.65051	1.78487
2901.59701	1.78411
2899.54351	1.78280
2897.49000	1.78140
2895.43650	1.77983
2893.38300	1.77900
2891.32950	1.77872
2889.27600	1.77884
2887.22250	1.77975
2885.16900	1.78142
2883.11550	1.78404
2881.06200	1.78656
2879.00849	1.78721
2876.95499	1.78606
2874.90149	1.78477
2872.84799	1.78439
2870.79449	1.78468
2868.74099	1.78469
2866.68749	1.78428
2864.63399	1.78432
2862.58049	1.78488
2860.52698	1.78544
2858.47348	1.78548
2856.41998	1.78543
2854.36648	1.78521
2852.31298	1.78414
2850.25948	1.78276
2848.20598	1.78160
2846.15248	1.78085
2844.09898	1.78067
2842.04548	1.78088
2839.99197	1.78126
2837.93847	1.78144
2835.88497	1.78165
2833.83147	1.78259
2831.77797	1.78429
2829.72447	1.78581
2827.67097	1.78513
2825.61747	1.78261
2823.56397	1.78138
2821.51046	1.78156
2819.45696	1.78124
2817.40346	1.78067
2815.34996	1.78121
2813.29646	1.78191
2811.24296	1.78194
2809.18946	1.78297
2807.13596	1.78478
2805.08246	1.78539
2803.02895	1.78457
2800.97545	1.78313
2798.92195	1.78184
2796.86845	1.78203
2794.81495	1.78411
2792.76145	1.78624
2790.70795	1.78740
2788.65445	1.78771
2786.60095	1.78673
2784.54745	1.78555
2782.49394	1.78514
2780.44044	1.78471
2778.38694	1.78416
2776.33344	1.78409
2774.27994	1.78408
2772.22644	1.78331
2770.17294	1.78285
2768.11944	1.78360
2766.06594	1.78476
2764.01243	1.78646
2761.95893	1.78764
2759.90543	1.78680
2757.85193	1.78576
2755.79843	1.78598
2753.74493	1.78651
2751.69143	1.78669
2749.63793	1.78662
2747.58443	1.78625
2745.53093	1.78605
2743.47742	1.78574
2741.42392	1.78546
2739.37042	1.78626
2737.31692	1.78732
2735.26342	1.78810
2733.20992	1.78862
2731.15642	1.78799
2729.10292	1.78690
2727.04942	1.78612
2724.99591	1.78521
2722.94241	1.78465
2720.88891	1.78485
2718.83541	1.78513
2716.78191	1.78528
2714.72841	1.78563
2712.67491	1.78551
2710.62141	1.78488
2708.56791	1.78516
2706.51440	1.78635
2704.46090	1.78722
2702.40740	1.78726
2700.35390	1.78655
2698.30040	1.78580
2696.24690	1.78592
2694.19340	1.78619
2692.13990	1.78608
2690.08640	1.78614
2688.03290	1.78607
2685.97939	1.78580
2683.92589	1.78605
2681.87239	1.78664
2679.81889	1.78682
2677.76539	1.78678
2675.71189	1.78641
2673.65839	1.78545
2671.60489	1.78442
2669.55139	1.78404
2667.49788	1.78397
2665.44438	1.78373
2663.39088	1.78425
2661.33738	1.78511
2659.28388	1.78533
2657.23038	1.78558
2655.17688	1.78636
2653.12338	1.78691
2651.06988	1.78629
2649.01637	1.78530
2646.96287	1.78535
2644.90937	1.78538
2642.85587	1.78469
2640.80237	1.78482
2638.74887	1.78503
2636.69537	1.78424
2634.64187	1.78383
2632.58837	1.78424
2630.53487	1.78439
2628.48136	1.78355
2626.42786	1.78214
2624.37436	1.78221
2622.32086	1.78434
2620.26736	1.78570
2618.21386	1.78552
2616.16036	1.78580
2614.10686	1.78634
2612.05336	1.78557
2609.99985	1.78448
2607.94635	1.78477
2605.89285	1.78475
2603.83935	1.78340
2601.78585	1.78330
2599.73235	1.78402
2597.67885	1.78322
2595.62535	1.78247
2593.57185	1.78366
2591.51835	1.78542
2589.46484	1.78560
2587.41134	1.78506
2585.35784	1.78492
2583.30434	1.78457
2581.25084	1.78456
2579.19734	1.78529
2577.14384	1.78589
2575.09034	1.78586
2573.03684	1.78561
2570.98333	1.78542
2568.92983	1.78453
2566.87633	1.78339
2564.82283	1.78279
2562.76933	1.78173
2560.71583	1.78067
2558.66233	1.78079
2556.60883	1.78187
2554.55533	1.78298
2552.50182	1.78264
2550.44832	1.78117
2548.39482	1.78059
2546.34132	1.78165
2544.28782	1.78231
2542.23432	1.78128
2540.18082	1.78068
2538.12732	1.78132
2536.07382	1.78223
2534.02032	1.78324
2531.96681	1.78430
2529.91331	1.78544
2527.85981	1.78588
2525.80631	1.78424
2523.75281	1.78189
2521.69931	1.78087
2519.64581	1.78137
2517.59231	1.78326
2515.53881	1.78525
2513.48530	1.78585
2511.43180	1.78463
2509.37830	1.78281
2507.32480	1.78275
2505.27130	1.78324
2503.21780	1.78245
2501.16430	1.78161
2499.11080	1.78143
2497.05730	1.78188
2495.00380	1.78301
2492.95029	1.78343
2490.89679	1.78262
2488.84329	1.78210
2486.78979	1.78284
2484.73629	1.78429
2482.68279	1.78462
2480.62929	1.78353
2478.57579	1.78229
2476.52229	1.78217
2474.46878	1.78350
2472.41528	1.78469
2470.36178	1.78441
2468.30828	1.78280
2466.25478	1.78152
2464.20128	1.78138
2462.14778	1.78145
2460.09428	1.78175
2458.04078	1.78210
2455.98727	1.78154
2453.93377	1.78060
2451.88027	1.78076
2449.82677	1.78178
2447.77327	1.78224
2445.71977	1.78167
2443.66627	1.78065
2441.61277	1.78051
2439.55927	1.78207
2437.50577	1.78398
2435.45226	1.78435
2433.39876	1.78353
2431.34526	1.78323
2429.29176	1.78333
2427.23826	1.78304
2425.18476	1.78316
2423.13126	1.78403
2421.07776	1.78503
2419.02426	1.78566
2416.97075	1.78521
2414.91725	1.78288
2412.86375	1.78018
2410.81025	1.77972
2408.75675	1.78097
2406.70325	1.78194
2404.64975	1.78220
2402.59625	1.78250
2400.54275	1.78298
2398.48924	1.78371
2396.43574	1.78448
2394.38224	1.78422
2392.32874	1.78254
2390.27524	1.78046
2388.22174	1.77910
2386.16824	1.77808
2384.11474	1.77747
2382.06124	1.77772
2380.00774	1.77882
2377.95423	1.78086
2375.90073	1.78298
2373.84723	1.78361
2371.79373	1.78304
2369.74023	1.78380
2367.68673	1.78505
2365.63323	1.78522
2363.57973	1.78729
2361.52623	1.79218
2359.47272	1.79584
2357.41922	1.79576
2355.36572	1.79269
2353.31222	1.79107
2351.25872	1.79065
2349.20522	1.78648
2347.15172	1.78291
2345.09822	1.78572
2343.04472	1.78872
2340.99122	1.78733
2338.93771	1.78718
2336.88421	1.78760
2334.83071	1.78674
2332.77721	1.78560
2330.72371	1.78445
2328.67021	1.78415
2326.61671	1.78401
2324.56321	1.78346
2322.50971	1.78188
2320.45620	1.77977
2318.40270	1.77927
2316.34920	1.77998
2314.29570	1.78101
2312.24220	1.78186
2310.18870	1.78216
2308.13520	1.78186
2306.08170	1.78038
2304.02820	1.77859
2301.97469	1.77782
2299.92119	1.77801
2297.86769	1.77874
2295.81419	1.77896
2293.76069	1.77827
2291.70719	1.77767
2289.65369	1.77748
2287.60019	1.77718
2285.54669	1.77635
2283.49319	1.77552
2281.43968	1.77498
2279.38618	1.77487
2277.33268	1.77554
2275.27918	1.77647
2273.22568	1.77800
2271.17218	1.77971
2269.11868	1.77975
2267.06518	1.77856
2265.01168	1.77778
2262.95817	1.77813
2260.90467	1.77865
2258.85117	1.77782
2256.79767	1.77617
2254.74417	1.77571
2252.69067	1.77648
2250.63717	1.77649
2248.58367	1.77547
2246.53017	1.77456
2244.47667	1.77428
2242.42316	1.77490
2240.36966	1.77641
2238.31616	1.77755
2236.26266	1.77702
2234.20916	1.77577
2232.15566	1.77530
2230.10216	1.77572
2228.04866	1.77685
2225.99516	1.77809
2223.94165	1.77783
2221.88815	1.77632
2219.83465	1.77592
2217.78115	1.77693
2215.72765	1.77852
2213.67415	1.78043
2211.62065	1.78098
2209.56715	1.77971
2207.51365	1.77866
2205.46014	1.77837
2203.40664	1.77751
2201.35314	1.77655
2199.29964	1.77706
2197.24614	1.77827
2195.19264	1.77922
2193.13914	1.77951
2191.08564	1.77976
2189.03214	1.78094
2186.97864	1.78149
2184.92513	1.78078
2182.87163	1.78055
2180.81813	1.78065
2178.76463	1.78025
2176.71113	1.78037
2174.65763	1.78097
2172.60413	1.78147
2170.55063	1.78209
2168.49713	1.78213
2166.44362	1.78234
2164.39012	1.78392
2162.33662	1.78525
2160.28312	1.78435
2158.22962	1.78272
2156.17612	1.78246
2154.12262	1.78303
2152.06912	1.78382
2150.01562	1.78467
2147.96211	1.78517
2145.90861	1.78538
2143.85511	1.78560
2141.80161	1.78601
2139.74811	1.78612
2137.69461	1.78565
2135.64111	1.78491
2133.58761	1.78427
2131.53411	1.78491
2129.48061	1.78622
2127.42710	1.78644
2125.37360	1.78668
2123.32010	1.78712
2121.26660	1.78708
2119.21310	1.78762
2117.15960	1.78779
2115.10610	1.78679
2113.05260	1.78674
2110.99910	1.78776
2108.94559	1.78814
2106.89209	1.78758
2104.83859	1.78684
2102.78509	1.78690
2100.73159	1.78737
2098.67809	1.78798
2096.62459	1.78896
2094.57109	1.78902
2092.51759	1.78784
2090.46409	1.78733
2088.41058	1.78879
2086.35708	1.79021
2084.30358	1.78990
2082.25008	1.78981
2080.19658	1.79090
2078.14308	1.79200
2076.08958	1.79200
2074.03608	1.79189
2071.98258	1.79301
2069.92907	1.79357
2067.87557	1.79346
2065.82207	1.79463
2063.76857	1.79512
2061.71507	1.79357
2059.66157	1.79278
2057.60807	1.79294
2055.55457	1.79237
2053.50107	1.79165
2051.44756	1.79176
2049.39406	1.79219
2047.34056	1.79188
2045.28706	1.79126
2043.23356	1.79109
2041.18006	1.79135
2039.12656	1.79192
2037.07306	1.79230
2035.01956	1.79191
2032.96606	1.79120
2030.91255	1.79100
2028.85905	1.79151
2026.80555	1.79238
2024.75205	1.79322
2022.69855	1.79368
2020.64505	1.79315
2018.59155	1.79223
2016.53805	1.79200
2014.48455	1.79224
2012.43104	1.79262
2010.37754	1.79301
2008.32404	1.79230
2006.27054	1.79066
2004.21704	1.79084
2002.16354	1.79286
2000.11004	1.79374
1998.05654	1.79326
1996.00304	1.79317
1993.94953	1.79368
1991.89603	1.79415
1989.84253	1.79481
1987.78903	1.79536
1985.73553	1.79469
1983.68203	1.79304
1981.62853	1.79212
1979.57503	1.79320
1977.52153	1.79480
1975.46803	1.79500
1973.41452	1.79484
1971.36102	1.79593
1969.30752	1.79791
1967.25402	1.79883
1965.20052	1.79761
1963.14702	1.79600
1961.09352	1.79574
1959.04002	1.79607
1956.98652	1.79594
1954.93301	1.79618
1952.87951	1.79735
1950.82601	1.79851
1948.77251	1.79879
1946.71901	1.79823
1944.66551	1.79774
1942.61201	1.79818
1940.55851	1.79917
1938.50501	1.80063
1936.45151	1.80234
1934.39800	1.80274
1932.34450	1.80275
1930.29100	1.80400
1928.23750	1.80536
1926.18400	1.80497
1924.13050	1.80406
1922.07700	1.80462
1920.02350	1.80460
1917.97000	1.80463
1915.91649	1.80615
1913.86299	1.80658
1911.80949	1.80588
1909.75599	1.80580
1907.70249	1.80672
1905.64899	1.80798
1903.59549	1.80905
1901.54199	1.80935
1899.48849	1.80846
1897.43498	1.80687
1895.38148	1.80700
1893.32798	1.80932
1891.27448	1.81058
1889.22098	1.81078
1887.16748	1.81084
1885.11398	1.81073
1883.06048	1.81137
1881.00698	1.81207
1878.95348	1.81265
1876.89997	1.81390
1874.84647	1.81457
1872.79297	1.81324
1870.73947	1.81243
1868.68597	1.81564
1866.63247	1.81931
1864.57897	1.81946
1862.52547	1.81938
1860.47197	1.82087
1858.41846	1.82156
1856.36496	1.82101
1854.31146	1.82080
1852.25796	1.82086
1850.20446	1.82071
1848.15096	1.81969
1846.09746	1.81915
1844.04396	1.82410
1841.99046	1.83071
1839.93696	1.83127
1837.88345	1.82973
1835.82995	1.83055
1833.77645	1.83146
1831.72295	1.83142
1829.66945	1.83378
1827.61595	1.83667
1825.56245	1.83949
1823.50895	1.84446
1821.45545	1.84665
1819.40194	1.84620
1817.34844	1.84706
1815.29494	1.84899
1813.24144	1.85142
1811.18794	1.85481
1809.13444	1.85783
1807.08094	1.85949
1805.02744	1.86007
1802.97394	1.86134
1800.92043	1.86613
1798.86693	1.87287
1796.81343	1.87700
1794.75993	1.87886
1792.70643	1.88527
1790.65293	1.89573
1788.59943	1.89948
1786.54593	1.89836
1784.49243	1.89936
1782.43893	1.90523
1780.38542	1.91491
1778.33192	1.92352
1776.27842	1.92664
1774.22492	1.92955
1772.17142	1.94175
1770.11792	1.95793
1768.06442	1.96947
1766.01092	1.98011
1763.95742	1.99188
1761.90391	2.01218
1759.85041	2.03958
1757.79691	2.06720
1755.74341	2.10030
1753.68991	2.13157
1751.63641	2.16149
1749.58291	2.18267
1747.52941	2.16032
1745.47591	2.09807
1743.42240	2.01429
1741.36890	1.92244
1739.31540	1.83782
1737.26190	1.77611
1735.20840	1.72699
1733.15490	1.68083
1731.10140	1.64648
1729.04790	1.61629
1726.99440	1.58841
1724.94090	1.56553
1722.88739	1.54841
1720.83389	1.53564
1718.78039	1.52866
1716.72689	1.53673
1714.67339	1.55253
1712.61989	1.56443
1710.56639	1.57591
1708.51289	1.58790
1706.45939	1.60180
1704.40588	1.61604
1702.35238	1.62432
1700.29888	1.63630
1698.24538	1.65298
1696.19188	1.66477
1694.13838	1.67414
1692.08488	1.67633
1690.03138	1.67690
1687.97788	1.67840
1685.92438	1.67913
1683.87087	1.69192
1681.81737	1.70712
1679.76387	1.70847
1677.71037	1.70589
1675.65687	1.70665
1673.60337	1.71058
1671.54987	1.71201
1669.49637	1.71736
1667.44287	1.72519
1665.38936	1.72530
1663.33586	1.72543
1661.28236	1.73111
1659.22886	1.73400
1657.17536	1.73121
1655.12186	1.72818
1653.06836	1.73958
1651.01486	1.74959
1648.96136	1.74267
1646.90785	1.74119
1644.85435	1.74888
1642.80085	1.74967
1640.74735	1.74611
1638.69385	1.74248
1636.64035	1.74398
1634.58685	1.75558
1632.53335	1.76049
1630.47985	1.75724
1628.42635	1.75526
1626.37284	1.75529
1624.31934	1.75571
1622.26584	1.75911
1620.21234	1.75982
1618.15884	1.75767
1616.10534	1.76203
1614.05184	1.76790
1611.99834	1.76828
1609.94484	1.76747
1607.89133	1.76852
1605.83783	1.77018
1603.78433	1.77070
1601.73083	1.77183
1599.67733	1.77310
1597.62383	1.77326
1595.57033	1.77414
1593.51683	1.77527
1591.46333	1.77560
1589.40982	1.77689
1587.35632	1.77882
1585.30282	1.77947
1583.24932	1.77942
1581.19582	1.77987
1579.14232	1.77932
1577.08882	1.78025
1575.03532	1.78661
1572.98182	1.78799
1570.92832	1.78605
1568.87481	1.78824
1566.82131	1.78892
1564.76781	1.78693
1562.71431	1.78430
1560.66081	1.78152
1558.60731	1.79283
1556.55381	1.80435
1554.50031	1.80192
1552.44681	1.80008
1550.39330	1.80098
1548.33980	1.80192
1546.28630	1.79952
1544.23280	1.79600
1542.17930	1.79553
1540.12580	1.80379
1538.07230	1.81335
1536.01880	1.81212
1533.96530	1.81091
1531.91180	1.81368
1529.85829	1.81213
1527.80479	1.80939
1525.75129	1.81018
1523.69779	1.81080
1521.64429	1.81589
1519.59079	1.82542
1517.53729	1.82810
1515.48379	1.82823
1513.43029	1.82837
1511.37678	1.82649
1509.32328	1.82375
1507.26978	1.83009
1505.21628	1.84618
1503.16278	1.84929
1501.10928	1.84796
1499.05578	1.85042
1497.00228	1.85842
1494.94878	1.86709
1492.89527	1.87007
1490.84177	1.87243
1488.78827	1.87893
1486.73477	1.88003
1484.68127	1.87349
1482.62777	1.86545
1480.57427	1.85890
1478.52077	1.85184
1476.46727	1.84188
1474.41377	1.83295
1472.36026	1.83312
1470.30676	1.83687
1468.25326	1.83448
1466.19976	1.83057
1464.14626	1.83061
1462.09276	1.83097
1460.03926	1.82886
1457.98576	1.82909
1455.93226	1.83297
1453.87875	1.82767
1451.82525	1.81649
1449.77175	1.80439
1447.71825	1.79066
1445.66475	1.77675
1443.61125	1.76652
1441.55775	1.75963
1439.50425	1.75329
1437.45075	1.74929
1435.39725	1.74993
1433.34374	1.74815
1431.29024	1.74470
1429.23674	1.74633
1427.18324	1.75238
1425.12974	1.75874
1423.07624	1.76394
1421.02274	1.76788
1418.96924	1.77741
1416.91574	1.79057
1414.86223	1.79632
1412.80873	1.79880
1410.75523	1.80282
1408.70173	1.80821
1406.64823	1.81384
1404.59473	1.82016
1402.54123	1.82522
1400.48773	1.82859
1398.43423	1.83256
1396.38072	1.83594
1394.32722	1.83850
1392.27372	1.83752
1390.22022	1.82970
1388.16672	1.81726
1386.11322	1.80500
1384.05972	1.79590
1382.00622	1.78949
1379.95272	1.78571
1377.89922	1.78444
1375.84571	1.78646
1373.79221	1.79283
1371.73871	1.79784
1369.68521	1.79663
1367.63171	1.79182
1365.57821	1.78647
1363.52471	1.78324
1361.47121	1.78494
1359.41771	1.78906
1357.36420	1.79270
1355.31070	1.79613
1353.25720	1.79979
1351.20370	1.80319
1349.15020	1.80577
1347.09670	1.80753
1345.04320	1.80900
1342.98970	1.81125
1340.93620	1.81489
1338.88269	1.81986
1336.82919	1.82440
1334.77569	1.82678
1332.72219	1.82814
1330.66869	1.83063
1328.61519	1.83471
1326.56169	1.83950
1324.50819	1.84336
1322.45469	1.84617
1320.40119	1.85040
1318.34768	1.85593
1316.29418	1.86060
1314.24068	1.86517
1312.18718	1.87103
1310.13368	1.87554
1308.08018	1.87647
1306.02668	1.87629
1303.97318	1.87617
1301.91968	1.87480
1299.86617	1.87299
1297.81267	1.87258
1295.75917	1.87290
1293.70567	1.87293
1291.65217	1.87364
1289.59867	1.87453
1287.54517	1.87470
1285.49167	1.87473
1283.43817	1.87305
1281.38467	1.86931
1279.33116	1.86606
1277.27766	1.86324
1275.22416	1.85992
1273.17066	1.85611
1271.11716	1.85107
1269.06366	1.84591
1267.01016	1.84326
1264.95666	1.84291
1262.90316	1.84231
1260.84965	1.84074
1258.79615	1.83971
1256.74265	1.83978
1254.68915	1.84065
1252.63565	1.84162
1250.58215	1.84100
1248.52865	1.83790
1246.47515	1.83265
1244.42165	1.82611
1242.36814	1.81877
1240.31464	1.80955
1238.26114	1.79921
1236.20764	1.78983
1234.15414	1.78204
1232.10064	1.77710
1230.04714	1.77484
1227.99364	1.77291
1225.94014	1.77170
1223.88664	1.77411
1221.83313	1.78049
1219.77963	1.78796
1217.72613	1.79459
1215.67263	1.80014
1213.61913	1.80644
1211.56563	1.81728
1209.51213	1.83124
1207.45863	1.84191
1205.40513	1.84755
1203.35162	1.85032
1201.29812	1.84926
1199.24462	1.84327
1197.19112	1.83321
1195.13762	1.81965
1193.08412	1.80512
1191.03062	1.79342
1188.97712	1.78574
1186.92362	1.78189
1184.87012	1.78128
1182.81661	1.77984
1180.76311	1.77209
1178.70961	1.75709
1176.65611	1.73738
1174.60261	1.71460
1172.54911	1.69127
1170.49561	1.67070
1168.44211	1.65394
1166.38861	1.64030
1164.33510	1.62856
1162.28160	1.61838
1160.22810	1.61022
1158.17460	1.60399
1156.12110	1.59957
1154.06760	1.59624
1152.01410	1.59059
1149.96060	1.58018
1147.90710	1.56681
1145.85359	1.55312
1143.80009	1.54085
1141.74659	1.53149
1139.69309	1.52489
1137.63959	1.52028
1135.58609	1.51855
1133.53259	1.51977
1131.47909	1.52237
1129.42559	1.52537
1127.37209	1.52919
1125.31858	1.53459
1123.26508	1.54099
1121.21158	1.54631
1119.15808	1.54957
1117.10458	1.55160
1115.05108	1.55182
1112.99758	1.54934
1110.94408	1.54621
1108.89058	1.54569
1106.83707	1.54857
1104.78357	1.55353
1102.73007	1.55978
1100.67657	1.56537
1098.62307	1.56816
1096.56957	1.56829
1094.51607	1.56700
1092.46257	1.56618
1090.40907	1.56639
1088.35556	1.56766
1086.30206	1.57157
1084.24856	1.57653
1082.19506	1.57967
1080.14156	1.58295
1078.08806	1.58842
1076.03456	1.59447
1073.98106	1.59873
1071.92756	1.60146
1069.87406	1.60516
1067.82055	1.60971
1065.76705	1.61287
1063.71355	1.61501
1061.66005	1.61758
1059.60655	1.62052
1057.55305	1.62297
1055.49955	1.62455
1053.44605	1.62609
1051.39255	1.62878
1049.33904	1.63434
1047.28554	1.64266
1045.23204	1.65133
1043.17854	1.65985
1041.12504	1.66876
1039.07154	1.67715
1037.01804	1.68288
1034.96454	1.68472
1032.91104	1.68188
1030.85754	1.67134
1028.80403	1.65323
1026.75053	1.63243
1024.69703	1.61244
1022.64353	1.59616
1020.59003	1.58515
1018.53653	1.57854
1016.48303	1.57554
1014.42953	1.57512
1012.37603	1.57685
1010.32252	1.58030
1008.26902	1.58479
1006.21552	1.59013
1004.16202	1.59518
1002.10852	1.59996
1000.05502	1.60624
998.00152	1.61296
995.94802	1.61838
993.89452	1.62339
991.84101	1.62769
989.78751	1.63084
987.73401	1.63433
985.68051	1.63741
983.62701	1.63892
981.57351	1.64174
979.52001	1.64671
977.46651	1.65053
975.41301	1.65142
973.35951	1.65016
971.30600	1.64779
969.25250	1.64405
967.19900	1.63914
965.14550	1.63389
963.09200	1.62959
961.03850	1.62740
958.98500	1.62717
956.93150	1.62830
954.87800	1.63018
952.82449	1.63263
950.77099	1.63505
948.71749	1.63645
946.66399	1.63699
944.61049	1.63813
942.55699	1.64026
940.50349	1.64192
938.44999	1.64218
936.39649	1.64101
934.34298	1.63966
932.28948	1.64009
930.23598	1.64152
928.18248	1.64222
926.12898	1.64340
924.07548	1.64588
922.02198	1.64857
919.96848	1.65103
917.91498	1.65265
915.86148	1.65374
913.80797	1.65492
911.75447	1.65487
909.70097	1.65458
907.64747	1.65682
905.59397	1.65999
903.54047	1.66083
901.48697	1.66108
899.43347	1.66375
897.37997	1.66761
895.32646	1.67038
893.27296	1.67180
891.21946	1.67275
889.16596	1.67420
887.11246	1.67671
885.05896	1.67888
883.00546	1.67904
880.95196	1.67845
878.89846	1.67951
876.84496	1.68185
874.79145	1.68359
872.73795	1.68655
870.68445	1.69084
868.63095	1.69204
866.57745	1.68875
864.52395	1.68242
862.47045	1.67347
860.41695	1.66330
858.36345	1.65407
856.30994	1.64731
854.25644	1.64461
852.20294	1.64655
850.14944	1.65069
848.09594	1.65317
846.04244	1.65392
843.98894	1.65618
841.93544	1.66123
839.88194	1.66653
837.82843	1.66940
835.77493	1.66923
833.72143	1.66571
831.66793	1.66077
829.61443	1.65839
827.56093	1.65898
825.50743	1.65734
823.45393	1.65402
821.40043	1.65558
819.34693	1.65979
817.29342	1.66060
815.23992	1.66096
813.18642	1.66394
811.13292	1.66509
809.07942	1.66389
807.02592	1.66304
804.97242	1.66287
802.91892	1.66506
800.86542	1.66760
798.81191	1.66829
796.75841	1.67126
794.70491	1.67763
792.65141	1.68115
790.59791	1.67935
788.54441	1.67849
786.49091	1.68084
784.43741	1.68261
782.38391	1.68221
780.33041	1.68136
778.27690	1.68126
776.22340	1.68051
774.16990	1.67927
772.11640	1.67917
770.06290	1.68063
768.00940	1.68275
765.95590	1.68368
763.90240	1.68236
761.84890	1.67876
759.79539	1.67455
757.74189	1.67239
755.68839	1.67099
753.63489	1.66621
751.58139	1.65950
749.52789	1.65293
747.47439	1.64648
745.42089	1.64412
743.36739	1.64646
741.31388	1.64923
739.26038	1.65092
737.20688	1.65301
735.15338	1.65739
733.09988	1.66161
731.04638	1.66370
728.99288	1.66561
726.93938	1.66626
724.88588	1.66481
722.83238	1.66317
720.77887	1.66330
718.72537	1.66652
716.67187	1.67047
714.61837	1.67036
712.56487	1.66672
710.51137	1.66490
708.45787	1.66627
706.40437	1.66891
704.35087	1.67179
702.29736	1.67511
700.24386	1.67780
698.19036	1.67741
696.13686	1.67619
694.08336	1.67790
692.02986	1.67964
689.97636	1.67916
687.92286	1.67887
685.86936	1.67600
683.81585	1.67044
681.76235	1.67059
679.70885	1.67783
677.65535	1.68419
675.60185	1.68302
673.54835	1.67706
671.49485	1.67279
669.44135	1.67433
667.38785	1.68328
665.33435	1.68687
663.28084	1.68431
661.22734	1.68112
659.17384	1.67700
657.12034	1.67414
655.06684	1.67451
653.01334	1.67453
650.95984	1.67068
648.90634	1.66661
646.85284	1.66684
644.79933	1.66738
642.74583	1.66541
640.69233	1.66568
638.63883	1.66995
636.58533	1.67245
634.53183	1.67155
632.47833	1.67190
630.42483	1.67170
628.37133	1.66853
626.31783	1.66670
624.26432	1.66615
622.21082	1.66111
620.15732	1.65252
618.10382	1.64795
616.05032	1.64894
613.99682	1.65064
611.94332	1.65216
609.88982	1.65403
607.83632	1.65585
605.78281	1.65667
603.72931	1.65418
601.67581	1.65284
599.62231	1.65419
597.56881	1.65268
595.51531	1.65140
593.46181	1.65331
591.40831	1.65506
589.35481	1.65541
587.30130	1.65648
585.24780	1.66136
583.19430	1.66652
581.14080	1.66615
579.08730	1.66232
577.03380	1.66320
574.98030	1.67088
572.92680	1.67383
570.87330	1.66636
568.81980	1.65572
566.76629	1.65011
564.71279	1.65400
562.65929	1.66076
560.60579	1.66060
558.55229	1.65541
556.49879	1.65067
554.44529	1.64800
552.39179	1.64615
550.33829	1.64642
548.28478	1.65160
546.23128	1.65540
544.17778	1.65282
542.12428	1.65129
540.07078	1.65741
538.01728	1.66728
535.96378	1.67235
533.91028	1.67047
531.85678	1.66621
529.80327	1.66344
527.74977	1.66563
525.69627	1.67333
523.64277	1.67859
521.58927	1.67655
519.53577	1.67134
517.48227	1.66839
515.42877	1.67110
513.37527	1.67735
511.32177	1.68273
509.26826	1.68525
507.21476	1.68607
505.16126	1.68434
503.10776	1.67723
501.05426	1.67246
499.00076	1.67395
496.94726	1.67329
494.89376	1.67134
492.84026	1.66778
490.78675	1.66096
488.73325	1.66063
486.67975	1.66989
484.62625	1.67923
482.57275	1.67875
480.51925	1.67244
478.46575	1.66688
476.41225	1.66339
474.35875	1.66415
472.30525	1.66528
470.25174	1.66643
468.19824	1.67075
466.14474	1.67622
464.09124	1.67600
462.03774	1.66648
459.98424	1.66041
457.93074	1.66632
455.87724	1.67556
453.82374	1.68090
451.77023	1.68654
449.71673	1.69362
447.66323	1.69832
445.60973	1.69797
443.55623	1.69089
441.50273	1.68469
439.44923	1.67994
437.39573	1.67466
435.34223	1.68234
433.28872	1.69002
431.23522	1.67930
429.18172	1.67512
427.12822	1.68405
425.07472	1.68755
423.02122	1.68134
420.96772	1.67251
418.91422	1.67983
416.86072	1.70330
414.80722	1.71322
412.75371	1.71122
410.70021	1.70694
408.64671	1.71053
406.59321	1.72015
404.53971	1.72467
402.48621	1.71679
400.43271	1.69890
398.37921	1.68523
