5996.22311	2.22558
5994.16961	2.23950
5992.11611	2.27024
5990.06261	2.25176
5988.00911	2.20037
5985.95561	2.18203
5983.90211	2.18660
5981.84860	2.18002
5979.79510	2.17810
5977.74160	2.21365
5975.68810	2.25099
5973.63460	2.23518
5971.58110	2.24879
5969.52760	2.31758
5967.47410	2.30841
5965.42060	2.22710
5963.36710	2.18373
5961.31359	2.21372
5959.26009	2.26478
5957.20659	2.28484
5955.15309	2.30001
5953.09959	2.28283
5951.04609	2.23630
5948.99259	2.20211
5946.93909	2.19765
5944.88559	2.19176
5942.83208	2.19111
5940.77858	2.20118
5938.72508	2.20926
5936.67158	2.21688
5934.61808	2.23260
5932.56458	2.24739
5930.51108	2.24265
5928.45758	2.22589
5926.40408	2.21686
5924.35058	2.19903
5922.29707	2.16907
5920.24357	2.15743
5918.19007	2.17671
5916.13657	2.19858
5914.08307	2.19382
5912.02957	2.16739
5909.97607	2.17222
5907.92257	2.20524
5905.86907	2.24559
5903.81556	2.25493
5901.76206	2.22390
5899.70856	2.19759
5897.65506	2.17935
5895.60156	2.16752
5893.54806	2.18807
5891.49456	2.24441
5889.44106	2.24321
5887.38756	2.17309
5885.33405	2.15696
5883.28055	2.21425
5881.22705	2.26783
5879.17355	2.29555
5877.12005	2.31629
5875.06655	2.29764
5873.01305	2.24002
5870.95955	2.18982
5868.90605	2.16778
5866.85255	2.15917
5864.79904	2.15200
5862.74554	2.14928
5860.69204	2.15780
5858.63854	2.21701
5856.58504	2.27811
5854.53154	2.30164
5852.47804	2.29923
5850.42454	2.27855
5848.37104	2.23900
5846.31753	2.21560
5844.26403	2.23104
5842.21053	2.25265
5840.15703	2.25747
5838.10353	2.24361
5836.05003	2.21955
5833.99653	2.20084
5831.94303	2.17355
5829.88953	2.14003
5827.83602	2.15630
5825.78252	2.22469
5823.72902	2.23313
5821.67552	2.17417
5819.62202	2.15847
5817.56852	2.19086
5815.51502	2.18591
5813.46152	2.17072
5811.40802	2.19652
5809.35452	2.21857
5807.30101	2.20819
5805.24751	2.19336
5803.19401	2.21500
5801.14051	2.25478
5799.08701	2.26083
5797.03351	2.25128
5794.98001	2.27325
5792.92651	2.30554
5790.87301	2.28321
5788.81950	2.23795
5786.76600	2.20582
5784.71250	2.19525
5782.65900	2.19258
5780.60550	2.20209
5778.55200	2.21733
5776.49850	2.23388
5774.44500	2.27172
5772.39150	2.31056
5770.33800	2.31769
5768.28449	2.29306
5766.23099	2.23989
5764.17749	2.20942
5762.12399	2.23757
5760.07049	2.27055
5758.01699	2.24898
5755.96349	2.21649
5753.90999	2.20920
5751.85649	2.21644
5749.80298	2.24240
5747.74948	2.25810
5745.69598	2.23314
5743.64248	2.22602
5741.58898	2.24013
5739.53548	2.21480
5737.48198	2.18925
5735.42848	2.18990
5733.37498	2.20300
5731.32147	2.19184
5729.26797	2.16861
5727.21447	2.16478
5725.16097	2.20769
5723.10747	2.26685
5721.05397	2.26220
5719.00047	2.22105
5716.94697	2.21901
5714.89347	2.25248
5712.83997	2.25830
5710.78646	2.23610
5708.73296	2.24343
5706.67946	2.25450
5704.62596	2.24996
5702.57246	2.24932
5700.51896	2.24463
5698.46546	2.24831
5696.41196	2.26475
5694.35846	2.24991
5692.30495	2.21658
5690.25145	2.22210
5688.19795	2.25992
5686.14445	2.27195
5684.09095	2.21890
5682.03745	2.14900
5679.98395	2.13495
5677.93045	2.15517
5675.87695	2.16950
5673.82345	2.18185
5671.76994	2.18604
5669.71644	2.17836
5667.66294	2.17980
5665.60944	2.19414
5663.55594	2.20904
5661.50244	2.21633
5659.44894	2.21471
5657.39544	2.22128
5655.34194	2.22713
5653.28843	2.23436
5651.23493	2.24199
5649.18143	2.22301
5647.12793	2.20496
5645.07443	2.20654
5643.02093	2.20916
5640.96743	2.23824
5638.91393	2.29369
5636.86043	2.28156
5634.80692	2.21484
5632.75342	2.18277
5630.69992	2.19911
5628.64642	2.23147
5626.59292	2.24353
5624.53942	2.24363
5622.48592	2.24627
5620.43242	2.25146
5618.37892	2.26545
5616.32542	2.26696
5614.27191	2.27283
5612.21841	2.29202
5610.16491	2.28046
5608.11141	2.22772
5606.05791	2.18545
5604.00441	2.18087
5601.95091	2.19615
5599.89741	2.20115
5597.84391	2.18318
5595.79040	2.17525
5593.73690	2.19823
5591.68340	2.21996
5589.62990	2.22874
5587.57640	2.24647
5585.52290	2.25791
5583.46940	2.24045
5581.41590	2.21392
5579.36240	2.19190
5577.30889	2.17795
5575.25539	2.19047
5573.20189	2.20259
5571.14839	2.19281
5569.09489	2.19177
5567.04139	2.21534
5564.98789	2.23952
5562.93439	2.24206
5560.88089	2.23670
5558.82739	2.23777
5556.77388	2.24097
5554.72038	2.24126
5552.66688	2.24239
5550.61338	2.24692
5548.55988	2.24501
5546.50638	2.22466
5544.45288	2.21378
5542.39938	2.22141
5540.34588	2.22162
5538.29237	2.21743
5536.23887	2.22691
5534.18537	2.23546
5532.13187	2.24064
5530.07837	2.24171
5528.02487	2.22700
5525.97137	2.20665
5523.91787	2.20571
5521.86437	2.22267
5519.81087	2.20684
5517.75736	2.17248
5515.70386	2.17185
5513.65036	2.19304
5511.59686	2.21475
5509.54336	2.21832
5507.48986	2.20837
5505.43636	2.21769
5503.38286	2.23724
5501.32936	2.24769
5499.27585	2.24238
5497.22235	2.22298
5495.16885	2.20456
5493.11535	2.20279
5491.06185	2.21017
5489.00835	2.20985
5486.95485	2.21437
5484.90135	2.22728
5482.84785	2.23167
5480.79434	2.23261
5478.74084	2.24589
5476.68734	2.25698
5474.63384	2.24118
5472.58034	2.22456
5470.52684	2.20810
5468.47334	2.18198
5466.41984	2.19059
5464.36634	2.21785
5462.31284	2.20689
5460.25933	2.19136
5458.20583	2.20273
5456.15233	2.22195
5454.09883	2.21753
5452.04533	2.18757
5449.99183	2.16401
5447.93833	2.17468
5445.88483	2.21963
5443.83133	2.24868
5441.77782	2.22451
5439.72432	2.19029
5437.67082	2.18563
5435.61732	2.19531
5433.56382	2.19297
5431.51032	2.18041
5429.45682	2.17522
5427.40332	2.18790
5425.34982	2.20264
5423.29631	2.19414
5421.24281	2.17311
5419.18931	2.16118
5417.13581	2.15079
5415.08231	2.12966
5413.02881	2.12302
5410.97531	2.14338
5408.92181	2.16619
5406.86831	2.18444
5404.81481	2.21043
5402.76130	2.22316
5400.70780	2.21512
5398.65430	2.18741
5396.60080	2.13687
5394.54730	2.12334
5392.49380	2.18075
5390.44030	2.22690
5388.38680	2.20281
5386.33330	2.16672
5384.27979	2.15358
5382.22629	2.14541
5380.17279	2.14014
5378.11929	2.14785
5376.06579	2.16524
5374.01229	2.18122
5371.95879	2.19577
5369.90529	2.19705
5367.85179	2.18044
5365.79829	2.16461
5363.74478	2.15776
5361.69128	2.15215
5359.63778	2.15027
5357.58428	2.15012
5355.53078	2.14806
5353.47728	2.14549
5351.42378	2.14505
5349.37028	2.14838
5347.31678	2.14726
5345.26327	2.14926
5343.20977	2.16843
5341.15627	2.18854
5339.10277	2.19044
5337.04927	2.17302
5334.99577	2.15981
5332.94227	2.16160
5330.88877	2.15701
5328.83527	2.13814
5326.78176	2.13441
5324.72826	2.13717
5322.67476	2.11805
5320.62126	2.10944
5318.56776	2.12130
5316.51426	2.12852
5314.46076	2.12716
5312.40726	2.12539
5310.35376	2.12225
5308.30026	2.11146
5306.24675	2.10431
5304.19325	2.11402
5302.13975	2.12633
5300.08625	2.12589
5298.03275	2.12575
5295.97925	2.12488
5293.92575	2.10366
5291.87225	2.07958
5289.81875	2.07858
5287.76524	2.09687
5285.71174	2.12296
5283.65824	2.13147
5281.60474	2.10574
5279.55124	2.08638
5277.49774	2.09925
5275.44424	2.12163
5273.39074	2.12349
5271.33724	2.11001
5269.28374	2.09985
5267.23023	2.09765
5265.17673	2.09022
5263.12323	2.08782
5261.06973	2.10823
5259.01623	2.12361
5256.96273	2.11518
5254.90923	2.10490
5252.85573	2.09818
5250.80223	2.09263
5248.74872	2.09378
5246.69522	2.09356
5244.64172	2.08885
5242.58822	2.09775
5240.53472	2.11413
5238.48122	2.11820
5236.42772	2.12281
5234.37422	2.13638
5232.32072	2.13563
5230.26721	2.10989
5228.21371	2.09431
5226.16021	2.10485
5224.10671	2.11267
5222.05321	2.11418
5219.99971	2.11951
5217.94621	2.11771
5215.89271	2.10728
5213.83921	2.10248
5211.78571	2.10573
5209.73220	2.09727
5207.67870	2.08461
5205.62520	2.09982
5203.57170	2.12791
5201.51820	2.13417
5199.46470	2.12910
5197.41120	2.13550
5195.35770	2.15013
5193.30420	2.14625
5191.25069	2.11494
5189.19719	2.09537
5187.14369	2.10577
5185.09019	2.11563
5183.03669	2.10854
5180.98319	2.09969
5178.92969	2.09434
5176.87619	2.09405
5174.82269	2.10201
5172.76918	2.11407
5170.71568	2.11889
5168.66218	2.12129
5166.60868	2.12909
5164.55518	2.12738
5162.50168	2.11767
5160.44818	2.12951
5158.39468	2.14852
5156.34118	2.15229
5154.28768	2.15110
5152.23417	2.14115
5150.18067	2.12874
5148.12717	2.11690
5146.07367	2.09811
5144.02017	2.08285
5141.96667	2.08252
5139.91317	2.08751
5137.85967	2.09255
5135.80617	2.10272
5133.75266	2.10641
5131.69916	2.10140
5129.64566	2.09808
5127.59216	2.09755
5125.53866	2.10553
5123.48516	2.11781
5121.43166	2.12147
5119.37816	2.11421
5117.32466	2.09746
5115.27116	2.07912
5113.21765	2.07541
5111.16415	2.09045
5109.11065	2.10685
5107.05715	2.10620
5105.00365	2.08918
5102.95015	2.07875
5100.89665	2.09305
5098.84315	2.11666
5096.78965	2.12774
5094.73614	2.11954
5092.68264	2.10192
5090.62914	2.08965
5088.57564	2.08667
5086.52214	2.09238
5084.46864	2.10107
5082.41514	2.10757
5080.36164	2.11615
5078.30814	2.12694
5076.25463	2.13329
5074.20113	2.12444
5072.14763	2.10290
5070.09413	2.09426
5068.04063	2.10600
5065.98713	2.11716
5063.93363	2.11776
5061.88013	2.10738
5059.82663	2.08867
5057.77313	2.07614
5055.71962	2.08026
5053.66612	2.09176
5051.61262	2.09759
5049.55912	2.09660
5047.50562	2.09554
5045.45212	2.10043
5043.39862	2.11221
5041.34512	2.12668
5039.29162	2.12286
5037.23811	2.10320
5035.18461	2.09291
5033.13111	2.08928
5031.07761	2.08717
5029.02411	2.10012
5026.97061	2.11772
5024.91711	2.11805
5022.86361	2.11171
5020.81011	2.11169
5018.75661	2.11880
5016.70310	2.12843
5014.64960	2.13022
5012.59610	2.12154
5010.54260	2.11358
5008.48910	2.11337
5006.43560	2.10523
5004.38210	2.08847
5002.32860	2.07996
5000.27510	2.07863
4998.22159	2.08350
4996.16809	2.09401
4994.11459	2.10395
4992.06109	2.11640
4990.00759	2.13005
4987.95409	2.13545
4985.90059	2.12442
4983.84709	2.10674
4981.79359	2.09810
4979.74008	2.08733
4977.68658	2.07972
4975.63308	2.09385
4973.57958	2.11588
4971.52608	2.12034
4969.47258	2.10632
4967.41908	2.09667
4965.36558	2.09473
4963.31208	2.08623
4961.25858	2.07435
4959.20507	2.07624
4957.15157	2.09693
4955.09807	2.11741
4953.04457	2.11374
4950.99107	2.09520
4948.93757	2.08738
4946.88407	2.09406
4944.83057	2.10878
4942.77707	2.11859
4940.72356	2.11894
4938.67006	2.11516
4936.61656	2.10307
4934.56306	2.09216
4932.50956	2.09531
4930.45606	2.10330
4928.40256	2.10732
4926.34906	2.10712
4924.29556	2.09922
4922.24205	2.08831
4920.18855	2.08466
4918.13505	2.08759
4916.08155	2.08965
4914.02805	2.08773
4911.97455	2.08748
4909.92105	2.09314
4907.86755	2.10391
4905.81405	2.11570
4903.76055	2.11272
4901.70704	2.10079
4899.65354	2.10239
4897.60004	2.11062
4895.54654	2.10470
4893.49304	2.08920
4891.43954	2.08304
4889.38604	2.08796
4887.33254	2.09291
4885.27904	2.09395
4883.22553	2.09060
4881.17203	2.07917
4879.11853	2.06973
4877.06503	2.07270
4875.01153	2.07963
4872.95803	2.08425
4870.90453	2.09123
4868.85103	2.09661
4866.79753	2.09611
4864.74403	2.09822
4862.69052	2.10162
4860.63702	2.09976
4858.58352	2.09154
4856.53002	2.07791
4854.47652	2.06954
4852.42302	2.07895
4850.36952	2.10170
4848.31602	2.11442
4846.26252	2.11331
4844.20901	2.10999
4842.15551	2.10817
4840.10201	2.11038
4838.04851	2.11308
4835.99501	2.10574
4833.94151	2.09383
4831.88801	2.08843
4829.83451	2.08645
4827.78101	2.08729
4825.72750	2.09847
4823.67400	2.10855
4821.62050	2.10514
4819.56700	2.09873
4817.51350	2.09728
4815.46000	2.10113
4813.40650	2.10507
4811.35300	2.10349
4809.29950	2.09803
4807.24600	2.09360
4805.19249	2.09749
4803.13899	2.10654
4801.08549	2.11265
4799.03199	2.10998
4796.97849	2.09875
4794.92499	2.09247
4792.87149	2.09507
4790.81799	2.09669
4788.76449	2.09562
4786.71098	2.09766
4784.65748	2.10317
4782.60398	2.09877
4780.55048	2.09097
4778.49698	2.10123
4776.44348	2.11957
4774.38998	2.12627
4772.33648	2.10974
4770.28298	2.08274
4768.22947	2.08189
4766.17597	2.10521
4764.12247	2.11672
4762.06897	2.10938
4760.01547	2.10397
4757.96197	2.10873
4755.90847	2.11454
4753.85497	2.11291
4751.80147	2.10559
4749.74797	2.10229
4747.69446	2.11189
4745.64096	2.12644
4743.58746	2.12597
4741.53396	2.10958
4739.48046	2.09759
4737.42696	2.09261
4735.37346	2.09229
4733.31996	2.10120
4731.26646	2.10229
4729.21295	2.08906
4727.15945	2.08393
4725.10595	2.09401
4723.05245	2.09832
4720.99895	2.08649
4718.94545	2.07937
4716.89195	2.08364
4714.83845	2.08617
4712.78495	2.08748
4710.73145	2.09325
4708.67794	2.09808
4706.62444	2.09838
4704.57094	2.09592
4702.51744	2.09343
4700.46394	2.09743
4698.41044	2.10019
4696.35694	2.09521
4694.30344	2.09823
4692.24994	2.11187
4690.19643	2.11614
4688.14293	2.10595
4686.08943	2.09966
4684.03593	2.10420
4681.98243	2.10900
4679.92893	2.11168
4677.87543	2.11630
4675.82193	2.12102
4673.76843	2.12342
4671.71492	2.12409
4669.66142	2.12189
4667.60792	2.12216
4665.55442	2.12640
4663.50092	2.12456
4661.44742	2.11958
4659.39392	2.11827
4657.34042	2.11589
4655.28692	2.11715
4653.23342	2.12507
4651.17991	2.12802
4649.12641	2.12406
4647.07291	2.11752
4645.01941	2.10146
4642.96591	2.08015
4640.91241	2.07462
4638.85891	2.08784
4636.80541	2.09954
4634.75191	2.09909
4632.69840	2.09637
4630.64490	2.10078
4628.59140	2.11265
4626.53790	2.12605
4624.48440	2.13182
4622.43090	2.12363
4620.37740	2.10798
4618.32390	2.09472
4616.27040	2.08673
4614.21690	2.08502
4612.16339	2.09146
4610.10989	2.09952
4608.05639	2.11063
4606.00289	2.12187
4603.94939	2.11818
4601.89589	2.11108
4599.84239	2.10785
4597.78889	2.09835
4595.73539	2.08973
4593.68188	2.09491
4591.62838	2.10861
4589.57488	2.11772
4587.52138	2.12038
4585.46788	2.11469
4583.41438	2.10036
4581.36088	2.09341
4579.30738	2.10320
4577.25388	2.11899
4575.20037	2.12441
4573.14687	2.11626
4571.09337	2.10456
4569.03987	2.10211
4566.98637	2.11512
4564.93287	2.12885
4562.87937	2.12991
4560.82587	2.12495
4558.77237	2.11987
4556.71887	2.11173
4554.66536	2.10299
4552.61186	2.10655
4550.55836	2.11184
4548.50486	2.10244
4546.45136	2.09539
4544.39786	2.10398
4542.34436	2.11549
4540.29086	2.11431
4538.23736	2.10473
4536.18385	2.09709
4534.13035	2.09460
4532.07685	2.09729
4530.02335	2.10364
4527.96985	2.11223
4525.91635	2.12010
4523.86285	2.12499
4521.80935	2.12653
4519.75585	2.12533
4517.70234	2.12307
4515.64884	2.12221
4513.59534	2.12964
4511.54184	2.13916
4509.48834	2.13829
4507.43484	2.13544
4505.38134	2.13539
4503.32784	2.13148
4501.27434	2.12180
4499.22084	2.11313
4497.16733	2.11658
4495.11383	2.12661
4493.06033	2.12623
4491.00683	2.11708
4488.95333	2.11000
4486.89983	2.10894
4484.84633	2.11342
4482.79283	2.12093
4480.73933	2.13113
4478.68582	2.13568
4476.63232	2.13065
4474.57882	2.13242
4472.52532	2.14324
4470.47182	2.14577
4468.41832	2.14007
4466.36482	2.13768
4464.31132	2.13293
4462.25782	2.12597
4460.20432	2.12912
4458.15081	2.13451
4456.09731	2.13321
4454.04381	2.13588
4451.99031	2.14342
4449.93681	2.14627
4447.88331	2.14600
4445.82981	2.14792
4443.77631	2.14895
4441.72281	2.15021
4439.66930	2.16000
4437.61580	2.17114
4435.56230	2.16777
4433.50880	2.15850
4431.45530	2.15800
4429.40180	2.16384
4427.34830	2.16977
4425.29480	2.17487
4423.24130	2.17679
4421.18779	2.17606
4419.13429	2.17448
4417.08079	2.16994
4415.02729	2.16600
4412.97379	2.16694
4410.92029	2.17034
4408.86679	2.17486
4406.81329	2.18249
4404.75979	2.19154
4402.70629	2.18915
4400.65278	2.17766
4398.59928	2.17493
4396.54578	2.17698
4394.49228	2.17566
4392.43878	2.17900
4390.38528	2.18822
4388.33178	2.19275
4386.27828	2.18803
4384.22478	2.18316
4382.17127	2.18092
4380.11777	2.17831
4378.06427	2.18303
4376.01077	2.19699
4373.95727	2.20644
4371.90377	2.20355
4369.85027	2.19991
4367.79677	2.20399
4365.74327	2.21217
4363.68976	2.22033
4361.63626	2.22563
4359.58276	2.22527
4357.52926	2.22494
4355.47576	2.22714
4353.42226	2.22083
4351.36876	2.21493
4349.31526	2.21976
4347.26176	2.22909
4345.20826	2.23639
4343.15475	2.23501
4341.10125	2.22786
4339.04775	2.22345
4336.99425	2.22671
4334.94075	2.23448
4332.88725	2.23721
4330.83375	2.23367
4328.78025	2.22972
4326.72675	2.22260
4324.67324	2.21704
4322.61974	2.22399
4320.56624	2.22987
4318.51274	2.22198
4316.45924	2.21236
4314.40574	2.21462
4312.35224	2.22642
4310.29874	2.22667
4308.24524	2.21711
4306.19174	2.22086
4304.13823	2.23115
4302.08473	2.23277
4300.03123	2.23067
4297.97773	2.22996
4295.92423	2.22960
4293.87073	2.23427
4291.81723	2.23887
4289.76373	2.23070
4287.71023	2.21572
4285.65672	2.20849
4283.60322	2.21345
4281.54972	2.22101
4279.49622	2.22589
4277.44272	2.23056
4275.38922	2.23377
4273.33572	2.23918
4271.28222	2.24421
4269.22872	2.23844
4267.17521	2.22591
4265.12171	2.21669
4263.06821	2.21503
4261.01471	2.21944
4258.96121	2.22140
4256.90771	2.22111
4254.85421	2.22454
4252.80071	2.22971
4250.74721	2.23391
4248.69371	2.23903
4246.64020	2.24344
4244.58670	2.23929
4242.53320	2.23156
4240.47970	2.22839
4238.42620	2.22549
4236.37270	2.21773
4234.31920	2.20773
4232.26570	2.20789
4230.21220	2.21767
4228.15869	2.21949
4226.10519	2.21312
4224.05169	2.21095
4221.99819	2.21544
4219.94469	2.22061
4217.89119	2.21983
4215.83769	2.21806
4213.78419	2.21835
4211.73069	2.21601
4209.67719	2.21485
4207.62368	2.22208
4205.57018	2.23219
4203.51668	2.23133
4201.46318	2.21952
4199.40968	2.21281
4197.35618	2.22035
4195.30268	2.23208
4193.24918	2.23639
4191.19568	2.23388
4189.14217	2.22928
4187.08867	2.22145
4185.03517	2.21084
4182.98167	2.20579
4180.92817	2.20844
4178.87467	2.21477
4176.82117	2.21513
4174.76767	2.20781
4172.71417	2.20530
4170.66066	2.21338
4168.60716	2.22403
4166.55366	2.22427
4164.50016	2.21366
4162.44666	2.20716
4160.39316	2.21256
4158.33966	2.21910
4156.28616	2.22007
4154.23266	2.22392
4152.17916	2.23030
4150.12565	2.23257
4148.07215	2.22771
4146.01865	2.21657
4143.96515	2.21127
4141.91165	2.21206
4139.85815	2.20810
4137.80465	2.20244
4135.75115	2.20110
4133.69765	2.20697
4131.64414	2.21569
4129.59064	2.21734
4127.53714	2.21252
4125.48364	2.21577
4123.43014	2.22821
4121.37664	2.23121
4119.32314	2.22459
4117.26964	2.21833
4115.21614	2.21213
4113.16263	2.20827
4111.10913	2.20762
4109.05563	2.20485
4107.00213	2.20404
4104.94863	2.21212
4102.89513	2.22000
4100.84163	2.21868
4098.78813	2.21483
4096.73463	2.21631
4094.68113	2.22184
4092.62762	2.22339
4090.57412	2.21476
4088.52062	2.20519
4086.46712	2.20484
4084.41362	2.20906
4082.36012	2.21707
4080.30662	2.22409
4078.25312	2.22030
4076.19962	2.21456
4074.14611	2.21534
4072.09261	2.21844
4070.03911	2.22012
4067.98561	2.21367
4065.93211	2.20474
4063.87861	2.21117
4061.82511	2.22828
4059.77161	2.23919
4057.71811	2.23884
4055.66461	2.22872
4053.61110	2.21563
4051.55760	2.20856
4049.50410	2.21109
4047.45060	2.21970
4045.39710	2.22773
4043.34360	2.22998
4041.29010	2.22728
4039.23660	2.22724
4037.18310	2.23113
4035.12959	2.23113
4033.07609	2.23101
4031.02259	2.23506
4028.96909	2.23431
4026.91559	2.22749
4024.86209	2.22317
4022.80859	2.22582
4020.75509	2.22963
4018.70159	2.22860
4016.64808	2.22914
4014.59458	2.23418
4012.54108	2.23369
4010.48758	2.22569
4008.43408	2.22108
4006.38058	2.22033
4004.32708	2.21912
4002.27358	2.22018
4000.22008	2.22320
3998.16658	2.22363
3996.11307	2.22189
3994.05957	2.22053
3992.00607	2.21661
3989.95257	2.21444
3987.89907	2.21673
3985.84557	2.21393
3983.79207	2.21318
3981.73857	2.22230
3979.68507	2.22755
3977.63156	2.22040
3975.57806	2.21183
3973.52456	2.21440
3971.47106	2.22337
3969.41756	2.23211
3967.36406	2.23811
3965.31056	2.23606
3963.25706	2.23425
3961.20356	2.23589
3959.15006	2.23316
3957.09655	2.22959
3955.04305	2.22834
3952.98955	2.22672
3950.93605	2.22223
3948.88255	2.21302
3946.82905	2.20417
3944.77555	2.20446
3942.72205	2.21521
3940.66855	2.22513
3938.61504	2.22687
3936.56154	2.22742
3934.50804	2.22772
3932.45454	2.22285
3930.40104	2.21407
3928.34754	2.20320
3926.29404	2.19494
3924.24054	2.20034
3922.18704	2.21118
3920.13353	2.20995
3918.08003	2.20383
3916.02653	2.20993
3913.97303	2.22341
3911.91953	2.22666
3909.86603	2.22247
3907.81253	2.21832
3905.75903	2.21282
3903.70553	2.21243
3901.65203	2.22099
3899.59852	2.23009
3897.54502	2.22879
3895.49152	2.21670
3893.43802	2.20915
3891.38452	2.21497
3889.33102	2.21637
3887.27752	2.20538
3885.22402	2.19959
3883.17052	2.20326
3881.11701	2.20754
3879.06351	2.21239
3877.01001	2.21162
3874.95651	2.20772
3872.90301	2.20299
3870.84951	2.20069
3868.79601	2.21224
3866.74251	2.22241
3864.68901	2.23047
3862.63550	2.24351
3860.58200	2.24464
3858.52850	2.22703
3856.47500	2.19885
3854.42150	2.18794
3852.36800	2.22490
3850.31450	2.24350
3848.26100	2.22697
3846.20750	2.21168
3844.15400	2.21142
3842.10049	2.21757
3840.04699	2.21711
3837.99349	2.21923
3835.93999	2.23044
3833.88649	2.23342
3831.83299	2.23213
3829.77949	2.23168
3827.72599	2.22271
3825.67249	2.21059
3823.61898	2.20235
3821.56548	2.20465
3819.51198	2.21989
3817.45848	2.22614
3815.40498	2.23005
3813.35148	2.23349
3811.29798	2.22022
3809.24448	2.19723
3807.19098	2.18896
3805.13748	2.19897
3803.08397	2.20173
3801.03047	2.20784
3798.97697	2.22046
3796.92347	2.22501
3794.86997	2.23165
3792.81647	2.23661
3790.76297	2.23263
3788.70947	2.22377
3786.65597	2.21807
3784.60246	2.21943
3782.54896	2.22209
3780.49546	2.22115
3778.44196	2.22045
3776.38846	2.22248
3774.33496	2.22317
3772.28146	2.21685
3770.22796	2.21320
3768.17446	2.22435
3766.12095	2.23466
3764.06745	2.23627
3762.01395	2.22778
3759.96045	2.21660
3757.90695	2.21666
3755.85345	2.21271
3753.79995	2.19333
3751.74645	2.18420
3749.69295	2.21605
3747.63945	2.23378
3745.58594	2.22452
3743.53244	2.23886
3741.47894	2.24870
3739.42544	2.23387
3737.37194	2.21782
3735.31844	2.21485
3733.26494	2.22768
3731.21144	2.23980
3729.15794	2.23609
3727.10443	2.22584
3725.05093	2.22883
3722.99743	2.24557
3720.94393	2.25318
3718.89043	2.23980
3716.83693	2.22232
3714.78343	2.21433
3712.72993	2.22005
3710.67643	2.24196
3708.62292	2.26129
3706.56942	2.26692
3704.51592	2.26398
3702.46242	2.26588
3700.40892	2.27731
3698.35542	2.27843
3696.30192	2.26932
3694.24842	2.26006
3692.19492	2.25232
3690.14142	2.25732
3688.08791	2.27864
3686.03441	2.28698
3683.98091	2.28229
3681.92741	2.28338
3679.87391	2.29255
3677.82041	2.29854
3675.76691	2.31723
3673.71341	2.34415
3671.65991	2.33863
3669.60640	2.33426
3667.55290	2.34113
3665.49940	2.33628
3663.44590	2.33276
3661.39240	2.33404
3659.33890	2.32918
3657.28540	2.32898
3655.23190	2.34415
3653.17840	2.34605
3651.12490	2.32854
3649.07139	2.32890
3647.01789	2.36285
3644.96439	2.38605
3642.91089	2.38491
3640.85739	2.37837
3638.80389	2.38155
3636.75039	2.38777
3634.69689	2.38199
3632.64339	2.36010
3630.58988	2.34114
3628.53638	2.35406
3626.48288	2.38068
3624.42938	2.39097
3622.37588	2.38891
3620.32238	2.38166
3618.26888	2.38620
3616.21538	2.38893
3614.16188	2.38084
3612.10837	2.38958
3610.05487	2.40602
3608.00137	2.41241
3605.94787	2.41697
3603.89437	2.41443
3601.84087	2.40915
3599.78737	2.41260
3597.73387	2.41565
3595.68037	2.41231
3593.62687	2.41612
3591.57336	2.41922
3589.51986	2.41361
3587.46636	2.41722
3585.41286	2.42391
3583.35936	2.42203
3581.30586	2.41912
3579.25236	2.41329
3577.19886	2.41352
3575.14536	2.42816
3573.09185	2.43890
3571.03835	2.43245
3568.98485	2.41517
3566.93135	2.41133
3564.87785	2.42871
3562.82435	2.43693
3560.77085	2.43449
3558.71735	2.43168
3556.66385	2.43473
3554.61035	2.44717
3552.55684	2.45734
3550.50334	2.44966
3548.44984	2.43320
3546.39634	2.43060
3544.34284	2.44189
3542.28934	2.44316
3540.23584	2.43424
3538.18234	2.43323
3536.12884	2.43826
3534.07533	2.43484
3532.02183	2.42679
3529.96833	2.42954
3527.91483	2.43872
3525.86133	2.43790
3523.80783	2.42777
3521.75433	2.42600
3519.70083	2.43692
3517.64733	2.44085
3515.59382	2.43375
3513.54032	2.42999
3511.48682	2.43032
3509.43332	2.43367
3507.37982	2.43530
3505.32632	2.42899
3503.27282	2.42195
3501.21932	2.42272
3499.16582	2.42961
3497.11232	2.43654
3495.05881	2.44043
3493.00531	2.43592
3490.95181	2.42054
3488.89831	2.40954
3486.84481	2.41521
3484.79131	2.42541
3482.73781	2.42543
3480.68431	2.42458
3478.63081	2.43194
3476.57730	2.43531
3474.52380	2.42738
3472.47030	2.42344
3470.41680	2.42852
3468.36330	2.42994
3466.30980	2.42563
3464.25630	2.42731
3462.20280	2.44351
3460.14930	2.45495
3458.09579	2.44524
3456.04229	2.43280
3453.98879	2.43506
3451.93529	2.44599
3449.88179	2.44190
3447.82829	2.42349
3445.77479	2.42499
3443.72129	2.43992
3441.66779	2.43923
3439.61429	2.43488
3437.56078	2.43773
3435.50728	2.43634
3433.45378	2.43537
3431.40028	2.43707
3429.34678	2.43158
3427.29328	2.43051
3425.23978	2.44086
3423.18628	2.44655
3421.13278	2.43936
3419.07927	2.43144
3417.02577	2.43000
3414.97227	2.42432
3412.91877	2.41684
3410.86527	2.42234
3408.81177	2.42968
3406.75827	2.42941
3404.70477	2.43321
3402.65127	2.43919
3400.59777	2.43679
3398.54426	2.42686
3396.49076	2.42477
3394.43726	2.43478
3392.38376	2.44340
3390.33026	2.44616
3388.27676	2.44121
3386.22326	2.43482
3384.16976	2.43919
3382.11626	2.44276
3380.06275	2.43368
3378.00925	2.42671
3375.95575	2.42895
3373.90225	2.43173
3371.84875	2.43127
3369.79525	2.42904
3367.74175	2.42917
3365.68825	2.43079
3363.63475	2.42924
3361.58124	2.42652
3359.52774	2.42853
3357.47424	2.43448
3355.42074	2.44080
3353.36724	2.44746
3351.31374	2.45010
3349.26024	2.44586
3347.20674	2.43956
3345.15324	2.43691
3343.09974	2.43515
3341.04623	2.42830
3338.99273	2.42685
3336.93923	2.43882
3334.88573	2.44757
3332.83223	2.44330
3330.77873	2.43145
3328.72523	2.41948
3326.67173	2.42198
3324.61823	2.43545
3322.56472	2.43741
3320.51122	2.42658
3318.45772	2.41993
3316.40422	2.42177
3314.35072	2.42290
3312.29722	2.41906
3310.24372	2.41842
3308.19022	2.42323
3306.13672	2.42442
3304.08321	2.41996
3302.02971	2.41510
3299.97621	2.41062
3297.92271	2.40080
3295.86921	2.39288
3293.81571	2.40492
3291.76221	2.42850
3289.70871	2.43850
3287.65521	2.43323
3285.60171	2.42837
3283.54820	2.42757
3281.49470	2.42627
3279.44120	2.42470
3277.38770	2.42229
3275.33420	2.41659
3273.28070	2.41278
3271.22720	2.41419
3269.17370	2.41959
3267.12020	2.42342
3265.06669	2.41892
3263.01319	2.41652
3260.95969	2.42347
3258.90619	2.42724
3256.85269	2.42068
3254.79919	2.40866
3252.74569	2.40001
3250.69219	2.40215
3248.63869	2.41295
3246.58519	2.42185
3244.53168	2.42055
3242.47818	2.41779
3240.42468	2.42527
3238.37118	2.43163
3236.31768	2.42792
3234.26418	2.42614
3232.21068	2.42543
3230.15718	2.42233
3228.10368	2.42105
3226.05017	2.41861
3223.99667	2.41593
3221.94317	2.41467
3219.88967	2.41400
3217.83617	2.41990
3215.78267	2.42887
3213.72917	2.43135
3211.67567	2.43189
3209.62217	2.43110
3207.56866	2.42550
3205.51516	2.41907
3203.46166	2.41385
3201.40816	2.41758
3199.35466	2.42899
3197.30116	2.43214
3195.24766	2.42945
3193.19416	2.42966
3191.14066	2.42759
3189.08716	2.41921
3187.03365	2.41296
3184.98015	2.41417
3182.92665	2.42059
3180.87315	2.43284
3178.81965	2.44730
3176.76615	2.44812
3174.71265	2.42757
3172.65915	2.40813
3170.60565	2.40834
3168.55214	2.41873
3166.49864	2.42252
3164.44514	2.41487
3162.39164	2.40627
3160.33814	2.40288
3158.28464	2.40195
3156.23114	2.40025
3154.17764	2.40308
3152.12414	2.41550
3150.07064	2.42718
3148.01713	2.42850
3145.96363	2.42461
3143.91013	2.42555
3141.85663	2.42895
3139.80313	2.42366
3137.74963	2.40984
3135.69613	2.39856
3133.64263	2.39974
3131.58913	2.41179
3129.53562	2.42171
3127.48212	2.42293
3125.42862	2.42010
3123.37512	2.41815
3121.32162	2.41894
3119.26812	2.42285
3117.21462	2.42797
3115.16112	2.42662
3113.10762	2.41697
3111.05411	2.41174
3109.00061	2.41088
3106.94711	2.40469
3104.89361	2.40537
3102.84011	2.42074
3100.78661	2.42707
3098.73311	2.41468
3096.67961	2.40860
3094.62611	2.41678
3092.57261	2.42348
3090.51910	2.42300
3088.46560	2.41999
3086.41210	2.41352
3084.35860	2.40587
3082.30510	2.40911
3080.25160	2.41947
3078.19810	2.42144
3076.14460	2.41637
3074.09110	2.41250
3072.03759	2.41167
3069.98409	2.41412
3067.93059	2.41767
3065.87709	2.41723
3063.82359	2.41662
3061.77009	2.41865
3059.71659	2.41933
3057.66309	2.42063
3055.60959	2.42012
3053.55608	2.41378
3051.50258	2.40924
3049.44908	2.41089
3047.39558	2.41361
3045.34208	2.41135
3043.28858	2.40831
3041.23508	2.41425
3039.18158	2.42058
3037.12808	2.41769
3035.07458	2.41425
3033.02107	2.41851
3030.96757	2.42433
3028.91407	2.42463
3026.86057	2.42239
3024.80707	2.42052
3022.75357	2.42407
3020.70007	2.43170
3018.64657	2.43518
3016.59307	2.43506
3014.53956	2.43009
3012.48606	2.41947
3010.43256	2.41381
3008.37906	2.41970
3006.32556	2.43296
3004.27206	2.44536
3002.21856	2.44897
3000.16506	2.44310
2998.11156	2.43351
2996.05806	2.42516
2994.00455	2.42144
2991.95105	2.42128
2989.89755	2.41806
2987.84405	2.41382
2985.79055	2.41252
2983.73705	2.40880
2981.68355	2.40309
2979.63005	2.40105
2977.57655	2.40510
2975.52304	2.41210
2973.46954	2.41158
2971.41604	2.40144
2969.36254	2.39326
2967.30904	2.39520
2965.25554	2.40614
2963.20204	2.41345
2961.14854	2.40820
2959.09504	2.40177
2957.04153	2.40346
2954.98803	2.40977
2952.93453	2.41549
2950.88103	2.41346
2948.82753	2.40566
2946.77403	2.40695
2944.72053	2.41572
2942.66703	2.42214
2940.61353	2.42723
2938.56003	2.42586
2936.50652	2.41459
2934.45302	2.40310
2932.39952	2.39985
2930.34602	2.40392
2928.29252	2.40590
2926.23902	2.40433
2924.18552	2.40633
2922.13202	2.41005
2920.07852	2.41129
2918.02501	2.40795
2915.97151	2.40423
2913.91801	2.40675
2911.86451	2.40949
2909.81101	2.40658
2907.75751	2.40099
2905.70401	2.39577
2903.65051	2.39485
2901.59701	2.39906
2899.54351	2.39630
2897.49000	2.38673
2895.43650	2.38479
2893.38300	2.39101
2891.32950	2.39926
2889.27600	2.40338
2887.22250	2.40293
2885.16900	2.40029
2883.11550	2.39489
2881.06200	2.39011
2879.00849	2.38919
2876.95499	2.39218
2874.90149	2.39080
2872.84799	2.38449
2870.79449	2.38448
2868.74099	2.39080
2866.68749	2.40135
2864.63399	2.41146
2862.58049	2.40976
2860.52698	2.40128
2858.47348	2.39726
2856.41998	2.39785
2854.36648	2.40087
2852.31298	2.40409
2850.25948	2.40348
2848.20598	2.40033
2846.15248	2.40148
2844.09898	2.40867
2842.04548	2.41317
2839.99197	2.40747
2837.93847	2.40087
2835.88497	2.39881
2833.83147	2.39358
2831.77797	2.38694
2829.72447	2.38402
2827.67097	2.38584
2825.61747	2.39087
2823.56397	2.39269
2821.51046	2.39172
2819.45696	2.39075
2817.40346	2.38428
2815.34996	2.37465
2813.29646	2.37436
2811.24296	2.38261
2809.18946	2.38802
2807.13596	2.38823
2805.08246	2.38709
2803.02895	2.38780
2800.97545	2.39156
2798.92195	2.39340
2796.86845	2.39286
2794.81495	2.39664
2792.76145	2.40145
2790.70795	2.40121
2788.65445	2.39650
2786.60095	2.38762
2784.54745	2.37990
2782.49394	2.37887
2780.44044	2.37993
2778.38694	2.38087
2776.33344	2.38500
2774.27994	2.38810
2772.22644	2.38755
2770.17294	2.38543
2768.11944	2.38044
2766.06594	2.37637
2764.01243	2.37834
2761.95893	2.38163
2759.90543	2.37968
2757.85193	2.37507
2755.79843	2.37713
2753.74493	2.38362
2751.69143	2.38224
2749.63793	2.37469
2747.58443	2.37364
2745.53093	2.38218
2743.47742	2.38861
2741.42392	2.38527
2739.37042	2.38033
2737.31692	2.37917
2735.26342	2.38046
2733.20992	2.38230
2731.15642	2.38166
2729.10292	2.37950
2727.04942	2.37855
2724.99591	2.37742
2722.94241	2.37637
2720.88891	2.37776
2718.83541	2.37946
2716.78191	2.38129
2714.72841	2.38365
2712.67491	2.38417
2710.62141	2.38418
2708.56791	2.38276
2706.51440	2.37455
2704.46090	2.36591
2702.40740	2.36888
2700.35390	2.37922
2698.30040	2.38651
2696.24690	2.38475
2694.19340	2.37459
2692.13990	2.36887
2690.08640	2.37298
2688.03290	2.37860
2685.97939	2.38116
2683.92589	2.38344
2681.87239	2.38448
2679.81889	2.37899
2677.76539	2.36860
2675.71189	2.36296
2673.65839	2.36456
2671.60489	2.36564
2669.55139	2.36245
2667.49788	2.35927
2665.44438	2.35870
2663.39088	2.35807
2661.33738	2.36011
2659.28388	2.36756
2657.23038	2.37201
2655.17688	2.37096
2653.12338	2.37169
2651.06988	2.37519
2649.01637	2.37487
2646.96287	2.36989
2644.90937	2.36999
2642.85587	2.37471
2640.80237	2.37513
2638.74887	2.37352
2636.69537	2.37200
2634.64187	2.37082
2632.58837	2.37389
2630.53487	2.37774
2628.48136	2.37876
2626.42786	2.37826
2624.37436	2.37420
2622.32086	2.37109
2620.26736	2.37404
2618.21386	2.37664
2616.16036	2.37206
2614.10686	2.36462
2612.05336	2.36270
2609.99985	2.36418
2607.94635	2.36511
2605.89285	2.36792
2603.83935	2.37195
2601.78585	2.37204
2599.73235	2.36738
2597.67885	2.36302
2595.62535	2.36231
2593.57185	2.36463
2591.51835	2.36928
2589.46484	2.37387
2587.41134	2.37196
2585.35784	2.36550
2583.30434	2.36440
2581.25084	2.36989
2579.19734	2.37428
2577.14384	2.37484
2575.09034	2.37213
2573.03684	2.36677
2570.98333	2.36565
2568.92983	2.36987
2566.87633	2.37028
2564.82283	2.36636
2562.76933	2.36605
2560.71583	2.36839
2558.66233	2.36867
2556.60883	2.36529
2554.55533	2.36086
2552.50182	2.35883
2550.44832	2.35584
2548.39482	2.35332
2546.34132	2.35509
2544.28782	2.35758
2542.23432	2.35757
2540.18082	2.35871
2538.12732	2.36068
2536.07382	2.35737
2534.02032	2.35123
2531.96681	2.34990
2529.91331	2.35439
2527.85981	2.35682
2525.80631	2.35577
2523.75281	2.35714
2521.69931	2.35870
2519.64581	2.35873
2517.59231	2.36000
2515.53881	2.36259
2513.48530	2.36579
2511.43180	2.37030
2509.37830	2.37462
2507.32480	2.37583
2505.27130	2.37064
2503.21780	2.36197
2501.16430	2.35886
2499.11080	2.35900
2497.05730	2.35699
2495.00380	2.36015
2492.95029	2.37234
2490.89679	2.38018
2488.84329	2.37344
2486.78979	2.36528
2484.73629	2.36750
2482.68279	2.37317
2480.62929	2.37316
2478.57579	2.36697
2476.52229	2.36032
2474.46878	2.35978
2472.41528	2.36648
2470.36178	2.37357
2468.30828	2.37213
2466.25478	2.36660
2464.20128	2.36756
2462.14778	2.37300
2460.09428	2.37419
2458.04078	2.36966
2455.98727	2.36677
2453.93377	2.36864
2451.88027	2.36916
2449.82677	2.36651
2447.77327	2.36355
2445.71977	2.36536
2443.66627	2.37380
2441.61277	2.38208
2439.55927	2.38495
2437.50577	2.38293
2435.45226	2.37894
2433.39876	2.37203
2431.34526	2.36093
2429.29176	2.35278
2427.23826	2.35371
2425.18476	2.35824
2423.13126	2.36139
2421.07776	2.36656
2419.02426	2.36916
2416.97075	2.36889
2414.91725	2.37466
2412.86375	2.37782
2410.81025	2.37090
2408.75675	2.36647
2406.70325	2.36829
2404.64975	2.36741
2402.59625	2.36409
2400.54275	2.36206
2398.48924	2.35804
2396.43574	2.35398
2394.38224	2.35640
2392.32874	2.36059
2390.27524	2.35769
2388.22174	2.35165
2386.16824	2.35080
2384.11474	2.35333
2382.06124	2.35458
2380.00774	2.35305
2377.95423	2.34814
2375.90073	2.34289
2373.84723	2.34161
2371.79373	2.34489
2369.74023	2.35042
2367.68673	2.35466
2365.63323	2.35717
2363.57973	2.35635
2361.52623	2.34966
2359.47272	2.35161
2357.41922	2.37076
2355.36572	2.38798
2353.31222	2.38623
2351.25872	2.37156
2349.20522	2.35827
2347.15172	2.35141
2345.09822	2.35275
2343.04472	2.35875
2340.99122	2.36294
2338.93771	2.36616
2336.88421	2.36391
2334.83071	2.35997
2332.77721	2.36160
2330.72371	2.36202
2328.67021	2.35162
2326.61671	2.33908
2324.56321	2.34029
2322.50971	2.35346
2320.45620	2.35758
2318.40270	2.34930
2316.34920	2.34140
2314.29570	2.34024
2312.24220	2.34606
2310.18870	2.35288
2308.13520	2.35226
2306.08170	2.34665
2304.02820	2.34435
2301.97469	2.34481
2299.92119	2.34399
2297.86769	2.33964
2295.81419	2.33496
2293.76069	2.33612
2291.70719	2.34248
2289.65369	2.34919
2287.60019	2.35129
2285.54669	2.34855
2283.49319	2.34609
2281.43968	2.34457
2279.38618	2.34263
2277.33268	2.34111
2275.27918	2.33819
2273.22568	2.33528
2271.17218	2.33642
2269.11868	2.34154
2267.06518	2.34774
2265.01168	2.34872
2262.95817	2.34206
2260.90467	2.33468
2258.85117	2.33160
2256.79767	2.33229
2254.74417	2.33614
2252.69067	2.34247
2250.63717	2.34898
2248.58367	2.35068
2246.53017	2.34802
2244.47667	2.34771
2242.42316	2.34823
2240.36966	2.34619
2238.31616	2.34326
2236.26266	2.34190
2234.20916	2.34461
2232.15566	2.34794
2230.10216	2.34576
2228.04866	2.34053
2225.99516	2.33838
2223.94165	2.33982
2221.88815	2.34019
2219.83465	2.33772
2217.78115	2.33664
2215.72765	2.33793
2213.67415	2.34148
2211.62065	2.34580
2209.56715	2.34380
2207.51365	2.33754
2205.46014	2.33553
2203.40664	2.33683
2201.35314	2.33716
2199.29964	2.33521
2197.24614	2.33081
2195.19264	2.32904
2193.13914	2.33436
2191.08564	2.34288
2189.03214	2.34743
2186.97864	2.34565
2184.92513	2.34167
2182.87163	2.34013
2180.81813	2.34161
2178.76463	2.34420
2176.71113	2.34633
2174.65763	2.34543
2172.60413	2.34137
2170.55063	2.33941
2168.49713	2.34046
2166.44362	2.34073
2164.39012	2.34105
2162.33662	2.34304
2160.28312	2.34484
2158.22962	2.34687
2156.17612	2.34823
2154.12262	2.34514
2152.06912	2.33970
2150.01562	2.33655
2147.96211	2.33699
2145.90861	2.34025
2143.85511	2.34388
2141.80161	2.34471
2139.74811	2.34345
2137.69461	2.34392
2135.64111	2.34381
2133.58761	2.33912
2131.53411	2.33510
2129.48061	2.33514
2127.42710	2.33483
2125.37360	2.33463
2123.32010	2.33661
2121.26660	2.33755
2119.21310	2.33715
2117.15960	2.33937
2115.10610	2.34461
2113.05260	2.34780
2110.99910	2.34673
2108.94559	2.34483
2106.89209	2.34420
2104.83859	2.34445
2102.78509	2.34303
2100.73159	2.33968
2098.67809	2.33838
2096.62459	2.34041
2094.57109	2.34396
2092.51759	2.34707
2090.46409	2.34755
2088.41058	2.34480
2086.35708	2.34180
2084.30358	2.34127
2082.25008	2.34246
2080.19658	2.34474
2078.14308	2.34629
2076.08958	2.34380
2074.03608	2.33976
2071.98258	2.33981
2069.92907	2.33937
2067.87557	2.33514
2065.82207	2.33324
2063.76857	2.33657
2061.71507	2.34101
2059.66157	2.34192
2057.60807	2.33978
2055.55457	2.33929
2053.50107	2.34315
2051.44756	2.34594
2049.39406	2.34315
2047.34056	2.33945
2045.28706	2.33847
2043.23356	2.33901
2041.18006	2.34146
2039.12656	2.34464
2037.07306	2.34467
2035.01956	2.34149
2032.96606	2.33833
2030.91255	2.33752
2028.85905	2.33911
2026.80555	2.34089
2024.75205	2.34157
2022.69855	2.34133
2020.64505	2.33839
2018.59155	2.33570
2016.53805	2.34007
2014.48455	2.34602
2012.43104	2.34651
2010.37754	2.34496
2008.32404	2.34461
2006.27054	2.34704
2004.21704	2.35122
2002.16354	2.35192
2000.11004	2.34771
1998.05654	2.34290
1996.00304	2.34120
1993.94953	2.34116
1991.89603	2.34151
1989.84253	2.34349
1987.78903	2.34600
1985.73553	2.34802
1983.68203	2.34927
1981.62853	2.35099
1979.57503	2.35182
1977.52153	2.34760
1975.46803	2.34191
1973.41452	2.34099
1971.36102	2.34325
1969.30752	2.34593
1967.25402	2.34871
1965.20052	2.34927
1963.14702	2.34587
1961.09352	2.33980
1959.04002	2.33650
1956.98652	2.34066
1954.93301	2.34891
1952.87951	2.35545
1950.82601	2.35706
1948.77251	2.35382
1946.71901	2.34836
1944.66551	2.34287
1942.61201	2.34081
1940.55851	2.34323
1938.50501	2.34684
1936.45151	2.35010
1934.39800	2.35275
1932.34450	2.35693
1930.29100	2.36063
1928.23750	2.35861
1926.18400	2.35309
1924.13050	2.34899
1922.07700	2.34562
1920.02350	2.34264
1917.97000	2.34471
1915.91649	2.34770
1913.86299	2.34573
1911.80949	2.34540
1909.75599	2.35057
1907.70249	2.35565
1905.64899	2.35613
1903.59549	2.35617
1901.54199	2.35566
1899.48849	2.35178
1897.43498	2.35046
1895.38148	2.35509
1893.32798	2.35969
1891.27448	2.35862
1889.22098	2.35766
1887.16748	2.36159
1885.11398	2.36426
1883.06048	2.36547
1881.00698	2.36663
1878.95348	2.36638
1876.89997	2.36467
1874.84647	2.36050
1872.79297	2.35648
1870.73947	2.35652
1868.68597	2.36363
1866.63247	2.37180
1864.57897	2.37043
1862.52547	2.36466
1860.47197	2.35933
1858.41846	2.35589
1856.36496	2.35914
1854.31146	2.36537
1852.25796	2.36655
1850.20446	2.36407
1848.15096	2.36102
1846.09746	2.35605
1844.04396	2.35796
1841.99046	2.36823
1839.93696	2.37001
1837.88345	2.36691
1835.82995	2.36928
1833.77645	2.37524
1831.72295	2.37973
1829.66945	2.38274
1827.61595	2.38145
1825.56245	2.38134
1823.50895	2.38881
1821.45545	2.39266
1819.40194	2.39007
1817.34844	2.38772
1815.29494	2.38722
1813.24144	2.38744
1811.18794	2.39012
1809.13444	2.39592
1807.08094	2.40346
1805.02744	2.40817
1802.97394	2.40635
1800.92043	2.40520
1798.86693	2.40989
1796.81343	2.41167
1794.75993	2.40664
1792.70643	2.40875
1790.65293	2.42108
1788.59943	2.42119
1786.54593	2.41364
1784.49243	2.41419
1782.43893	2.42258
1780.38542	2.43427
1778.33192	2.44580
1776.27842	2.44595
1774.22492	2.43942
1772.17142	2.45126
1770.11792	2.47110
1768.06442	2.47203
1766.01092	2.46938
1763.95742	2.47332
1761.90391	2.48397
1759.85041	2.49259
1757.79691	2.49203
1755.74341	2.49082
1753.68991	2.48634
1751.63641	2.47605
1749.58291	2.46609
1747.52941	2.44868
1745.47591	2.41415
1743.42240	2.37130
1741.36890	2.33195
1739.31540	2.29941
1737.26190	2.26334
1735.20840	2.22582
1733.15490	2.21535
1731.10140	2.21757
1729.04790	2.20504
1726.99440	2.18802
1724.94090	2.17395
1722.88739	2.16502
1720.83389	2.15451
1718.78039	2.14894
1716.72689	2.17385
1714.67339	2.20771
1712.61989	2.22231
1710.56639	2.23150
1708.51289	2.24224
1706.45939	2.25789
1704.40588	2.27452
1702.35238	2.28153
1700.29888	2.30050
1698.24538	2.33010
1696.19188	2.34160
1694.13838	2.35230
1692.08488	2.35288
1690.03138	2.34560
1687.97788	2.33730
1685.92438	2.32716
1683.87087	2.34605
1681.81737	2.37466
1679.76387	2.36818
1677.71037	2.34951
1675.65687	2.34296
1673.60337	2.35283
1671.54987	2.35726
1669.49637	2.36360
1667.44287	2.37165
1665.38936	2.36465
1663.33586	2.36144
1661.28236	2.37215
1659.22886	2.37407
1657.17536	2.36009
1655.12186	2.34260
1653.06836	2.36000
1651.01486	2.38328
1648.96136	2.35910
1646.90785	2.34303
1644.85435	2.35877
1642.80085	2.36331
1640.74735	2.35518
1638.69385	2.34325
1636.64035	2.33855
1634.58685	2.35704
1632.53335	2.36392
1630.47985	2.35271
1628.42635	2.34480
1626.37284	2.34592
1624.31934	2.35136
1622.26584	2.36103
1620.21234	2.35897
1618.15884	2.34668
1616.10534	2.35150
1614.05184	2.35990
1611.99834	2.35253
1609.94484	2.34897
1607.89133	2.35583
1605.83783	2.36158
1603.78433	2.36270
1601.73083	2.36459
1599.67733	2.36944
1597.62383	2.37247
1595.57033	2.37229
1593.51683	2.37463
1591.46333	2.37758
1589.40982	2.37553
1587.35632	2.37111
1585.30282	2.37309
1583.24932	2.38185
1581.19582	2.38453
1579.14232	2.37882
1577.08882	2.38138
1575.03532	2.39475
1572.98182	2.38970
1570.92832	2.37685
1568.87481	2.37720
1566.82131	2.38457
1564.76781	2.39261
1562.71431	2.39003
1560.66081	2.37140
1558.60731	2.38851
1556.55381	2.42810
1554.50031	2.42475
1552.44681	2.41512
1550.39330	2.41391
1548.33980	2.41077
1546.28630	2.39534
1544.23280	2.38183
1542.17930	2.38978
1540.12580	2.42484
1538.07230	2.43878
1536.01880	2.42037
1533.96530	2.41066
1531.91180	2.41085
1529.85829	2.39187
1527.80479	2.36773
1525.75129	2.35982
1523.69779	2.35631
1521.64429	2.35737
1519.59079	2.36958
1517.53729	2.37535
1515.48379	2.37438
1513.43029	2.36284
1511.37678	2.34577
1509.32328	2.33469
1507.26978	2.34216
1505.21628	2.36383
1503.16278	2.35624
1501.10928	2.33595
1499.05578	2.32625
1497.00228	2.33302
1494.94878	2.33750
1492.89527	2.32703
1490.84177	2.31478
1488.78827	2.31379
1486.73477	2.31075
1484.68127	2.29719
1482.62777	2.28370
1480.57427	2.27820
1478.52077	2.27469
1476.46727	2.26885
1474.41377	2.27159
1472.36026	2.28962
1470.30676	2.30007
1468.25326	2.29376
1466.19976	2.28888
1464.14626	2.29191
1462.09276	2.28594
1460.03926	2.26944
1457.98576	2.27037
1455.93226	2.30304
1453.87875	2.30576
1451.82525	2.29014
1449.77175	2.28236
1447.71825	2.28008
1445.66475	2.27701
1443.61125	2.27480
1441.55775	2.27574
1439.50425	2.27648
1437.45075	2.28326
1435.39725	2.30458
1433.34374	2.31629
1431.29024	2.31822
1429.23674	2.32876
1427.18324	2.34116
1425.12974	2.34908
1423.07624	2.35882
1421.02274	2.36781
1418.96924	2.38298
1416.91574	2.40054
1414.86223	2.40255
1412.80873	2.40272
1410.75523	2.41156
1408.70173	2.41822
1406.64823	2.41528
1404.59473	2.41271
1402.54123	2.41065
1400.48773	2.40441
1398.43423	2.40304
1396.38072	2.40699
1394.32722	2.40347
1392.27372	2.39005
1390.22022	2.37642
1388.16672	2.37150
1386.11322	2.37635
1384.05972	2.38112
1382.00622	2.37877
1379.95272	2.37311
1377.89922	2.37151
1375.84571	2.37458
1373.79221	2.38221
1371.73871	2.39055
1369.68521	2.39271
1367.63171	2.38708
1365.57821	2.37625
1363.52471	2.37215
1361.47121	2.38025
1359.41771	2.38637
1357.36420	2.38786
1355.31070	2.39093
1353.25720	2.39358
1351.20370	2.39093
1349.15020	2.38702
1347.09670	2.38933
1345.04320	2.39476
1342.98970	2.39604
1340.93620	2.39636
1338.88269	2.40197
1336.82919	2.40790
1334.77569	2.41003
1332.72219	2.41048
1330.66869	2.40937
1328.61519	2.40647
1326.56169	2.40507
1324.50819	2.40714
1322.45469	2.40715
1320.40119	2.40137
1318.34768	2.39465
1316.29418	2.39042
1314.24068	2.38744
1312.18718	2.38437
1310.13368	2.38530
1308.08018	2.39109
1306.02668	2.39327
1303.97318	2.39196
1301.91968	2.39036
1299.86617	2.38482
1297.81267	2.38052
1295.75917	2.38305
1293.70567	2.38588
1291.65217	2.38280
1289.59867	2.37567
1287.54517	2.37028
1285.49167	2.36741
1283.43817	2.36588
1281.38467	2.36868
1279.33116	2.37135
1277.27766	2.36869
1275.22416	2.36362
1273.17066	2.35492
1271.11716	2.34748
1269.06366	2.34826
1267.01016	2.35097
1264.95666	2.35149
1262.90316	2.35140
1260.84965	2.35140
1258.79615	2.35199
1256.74265	2.35165
1254.68915	2.35014
1252.63565	2.34529
1250.58215	2.33604
1248.52865	2.32653
1246.47515	2.31990
1244.42165	2.31604
1242.36814	2.31215
1240.31464	2.30572
1238.26114	2.30170
1236.20764	2.30587
1234.15414	2.31133
1232.10064	2.31041
1230.04714	2.30959
1227.99364	2.31292
1225.94014	2.31789
1223.88664	2.32592
1221.83313	2.33431
1219.77963	2.33849
1217.72613	2.34329
1215.67263	2.35180
1213.61913	2.35956
1211.56563	2.36186
1209.51213	2.35807
1207.45863	2.35278
1205.40513	2.35051
1203.35162	2.34865
1201.29812	2.34311
1199.24462	2.33430
1197.19112	2.32479
1195.13762	2.31777
1193.08412	2.31253
1191.03062	2.30464
1188.97712	2.29542
1186.92362	2.29077
1184.87012	2.28790
1182.81661	2.28132
1180.76311	2.27067
1178.70961	2.25744
1176.65611	2.24393
1174.60261	2.22855
1172.54911	2.21397
1170.49561	2.20560
1168.44211	2.20042
1166.38861	2.19542
1164.33510	2.19086
1162.28160	2.18716
1160.22810	2.18588
1158.17460	2.18536
1156.12110	2.18470
1154.06760	2.18478
1152.01410	2.18321
1149.96060	2.17865
1147.90710	2.17168
1145.85359	2.16610
1143.80009	2.16714
1141.74659	2.17269
1139.69309	2.17806
1137.63959	2.18250
1135.58609	2.18804
1133.53259	2.19622
1131.47909	2.20198
1129.42559	2.20373
1127.37209	2.20706
1125.31858	2.21402
1123.26508	2.22233
1121.21158	2.22750
1119.15808	2.22869
1117.10458	2.22728
1115.05108	2.22528
1112.99758	2.22541
1110.94408	2.22707
1108.89058	2.23018
1106.83707	2.23087
1104.78357	2.22674
1102.73007	2.22309
1100.67657	2.22020
1098.62307	2.21674
1096.56957	2.21450
1094.51607	2.21139
1092.46257	2.20534
1090.40907	2.19790
1088.35556	2.19116
1086.30206	2.18708
1084.24856	2.18601
1082.19506	2.18455
1080.14156	2.17741
1078.08806	2.16696
1076.03456	2.15792
1073.98106	2.14859
1071.92756	2.14005
1069.87406	2.13329
1067.82055	2.12561
1065.76705	2.11647
1063.71355	2.10830
1061.66005	2.10459
1059.60655	2.10183
1057.55305	2.09441
1055.49955	2.08417
1053.44605	2.07469
1051.39255	2.06624
1049.33904	2.05839
1047.28554	2.05312
1045.23204	2.05077
1043.17854	2.04526
1041.12504	2.03484
1039.07154	2.02532
1037.01804	2.01689
1034.96454	2.00823
1032.91104	1.99831
1030.85754	1.98459
1028.80403	1.97271
1026.75053	1.96855
1024.69703	1.97041
1022.64353	1.97550
1020.59003	1.98226
1018.53653	1.98863
1016.48303	1.99447
1014.42953	2.00173
1012.37603	2.00888
1010.32252	2.01195
1008.26902	2.01027
1006.21552	2.00889
1004.16202	2.01288
1002.10852	2.01990
1000.05502	2.02634
998.00152	2.03256
995.94802	2.03865
993.89452	2.04376
991.84101	2.04790
989.78751	2.05075
987.73401	2.05196
985.68051	2.05441
983.62701	2.06130
981.57351	2.07164
979.52001	2.08250
977.46651	2.09112
975.41301	2.09610
973.35951	2.09709
971.30600	2.09545
969.25250	2.09351
967.19900	2.09189
965.14550	2.08900
963.09200	2.08379
961.03850	2.07945
958.98500	2.08043
956.93150	2.08666
954.87800	2.09221
952.82449	2.09201
950.77099	2.08869
948.71749	2.08771
946.66399	2.09087
944.61049	2.09628
942.55699	2.09855
940.50349	2.09763
938.44999	2.09948
936.39649	2.10335
934.34298	2.10568
932.28948	2.10696
930.23598	2.10854
928.18248	2.10791
926.12898	2.10580
924.07548	2.10435
922.02198	2.10326
919.96848	2.10649
917.91498	2.11049
915.86148	2.11027
913.80797	2.11113
911.75447	2.11273
909.70097	2.11055
907.64747	2.10828
905.59397	2.10776
903.54047	2.10530
901.48697	2.10485
899.43347	2.10927
897.37997	2.11319
895.32646	2.11517
893.27296	2.11387
891.21946	2.10760
889.16596	2.10214
887.11246	2.10081
885.05896	2.09948
883.00546	2.09458
880.95196	2.08661
878.89846	2.08267
876.84496	2.08843
874.79145	2.09666
872.73795	2.09682
870.68445	2.09082
868.63095	2.08760
866.57745	2.08410
864.52395	2.07359
862.47045	2.06391
860.41695	2.06096
858.36345	2.06229
856.30994	2.06568
854.25644	2.07097
852.20294	2.08025
850.14944	2.08876
848.09594	2.09171
846.04244	2.09440
843.98894	2.10250
841.93544	2.10995
839.88194	2.10732
837.82843	2.10180
835.77493	2.10106
833.72143	2.10279
831.66793	2.10530
829.61443	2.10504
827.56093	2.10177
825.50743	2.09774
823.45393	2.09336
821.40043	2.09081
819.34693	2.09293
817.29342	2.10197
815.23992	2.11554
813.18642	2.12467
811.13292	2.12135
809.07942	2.11232
807.02592	2.11130
804.97242	2.11592
802.91892	2.11640
800.86542	2.11487
798.81191	2.11605
796.75841	2.12311
794.70491	2.13703
792.65141	2.14492
790.59791	2.14249
788.54441	2.14414
786.49091	2.14936
784.43741	2.14686
782.38391	2.13800
780.33041	2.13269
778.27690	2.13644
776.22340	2.14375
774.16990	2.14717
772.11640	2.14728
770.06290	2.14798
768.00940	2.14961
765.95590	2.15150
763.90240	2.15378
761.84890	2.15753
759.79539	2.15589
757.74189	2.14874
755.68839	2.14947
753.63489	2.15695
751.58139	2.15753
749.52789	2.15601
747.47439	2.16359
745.42089	2.17406
743.36739	2.17591
741.31388	2.16966
739.26038	2.15931
737.20688	2.14882
735.15338	2.14839
733.09988	2.15928
731.04638	2.16827
728.99288	2.17154
726.93938	2.17660
724.88588	2.18708
722.83238	2.19428
720.77887	2.18712
718.72537	2.17795
716.67187	2.17986
714.61837	2.18398
712.56487	2.18244
710.51137	2.18468
708.45787	2.19563
706.40437	2.20144
704.35087	2.19745
702.29736	2.19527
700.24386	2.19903
698.19036	2.20495
696.13686	2.21455
694.08336	2.23859
692.02986	2.27127
689.97636	2.28380
687.92286	2.28070
685.86936	2.29207
683.81585	2.31100
681.76235	2.30737
679.70885	2.27884
677.65535	2.25319
675.60185	2.24126
673.54835	2.23955
671.49485	2.24496
669.44135	2.24891
667.38785	2.24852
665.33435	2.24825
663.28084	2.24589
661.22734	2.24433
659.17384	2.24645
657.12034	2.24613
655.06684	2.24460
653.01334	2.24945
650.95984	2.25599
648.90634	2.25737
646.85284	2.24588
644.79933	2.23291
642.74583	2.23583
640.69233	2.23570
638.63883	2.21450
636.58533	2.18475
634.53183	2.15236
632.47833	2.12709
630.42483	2.11685
628.37133	2.10713
626.31783	2.09125
624.26432	2.07970
622.21082	2.07237
620.15732	2.07464
618.10382	2.09952
616.05032	2.12918
613.99682	2.13819
611.94332	2.13588
609.88982	2.13218
607.83632	2.11503
605.78281	2.09394
603.72931	2.07915
601.67581	2.05713
599.62231	2.02993
597.56881	2.00991
595.51531	2.00016
593.46181	1.99671
591.40831	1.99587
589.35481	1.99942
587.30130	2.00733
585.24780	2.01973
583.19430	2.03896
581.14080	2.06245
579.08730	2.07653
577.03380	2.07725
574.98030	2.07825
572.92680	2.08162
570.87330	2.08529
568.81980	2.09572
566.76629	2.10521
564.71279	2.11158
562.65929	2.11973
560.60579	2.12502
558.55229	2.12440
556.49879	2.11862
554.44529	2.10985
552.39179	2.09780
550.33829	2.08598
548.28478	2.08348
546.23128	2.09145
544.17778	2.09666
542.12428	2.08911
540.07078	2.08087
538.01728	2.08266
535.96378	2.08806
533.91028	2.09815
531.85678	2.10165
529.80327	2.08581
527.74977	2.08326
525.69627	2.10513
523.64277	2.12172
521.58927	2.12573
519.53577	2.11249
517.48227	2.08931
515.42877	2.07914
513.37527	2.07624
511.32177	2.06168
509.26826	2.05991
507.21476	2.08977
505.16126	2.10324
503.10776	2.08249
501.05426	2.06964
499.00076	2.06100
496.94726	2.03996
494.89376	2.02413
492.84026	2.01277
490.78675	1.99265
488.73325	1.98148
486.67975	1.99597
484.62625	2.01670
482.57275	2.01458
480.51925	2.00151
478.46575	1.98825
476.41225	1.96887
474.35875	1.96091
472.30525	1.98569
470.25174	2.02327
468.19824	2.04524
466.14474	2.04783
464.09124	2.03432
462.03774	2.02366
459.98424	2.01710
457.93074	2.00222
455.87724	1.99185
453.82374	1.99071
451.77023	1.98919
449.71673	1.99903
447.66323	2.01787
445.60973	2.03751
443.55623	2.04785
441.50273	2.03436
439.44923	2.02369
437.39573	2.02538
435.34223	2.00945
433.28872	1.98632
431.23522	1.99387
429.18172	2.01289
427.12822	2.00816
425.07472	1.98707
423.02122	1.95445
420.96772	1.91306
418.91422	1.90822
416.86072	1.95687
414.80722	1.99023
412.75371	2.00551
410.70021	2.02216
408.64671	2.03798
406.59321	2.03739
404.53971	2.00244
402.48621	1.97180
400.43271	1.95168
398.37921	1.91877
