5996.22311	1.69828
5994.16961	1.69338
5992.11611	1.70477
5990.06261	1.71809
5988.00911	1.71457
5985.95561	1.70777
5983.90211	1.71408
5981.84860	1.71998
5979.79510	1.70556
5977.74160	1.68769
5975.68810	1.68707
5973.63460	1.69013
5971.58110	1.69496
5969.52760	1.70629
5967.47410	1.71242
5965.42060	1.71681
5963.36710	1.70987
5961.31359	1.68965
5959.26009	1.68638
5957.20659	1.68958
5955.15309	1.67873
5953.09959	1.67767
5951.04609	1.69095
5948.99259	1.69755
5946.93909	1.69108
5944.88559	1.67948
5942.83208	1.67984
5940.77858	1.69437
5938.72508	1.70977
5936.67158	1.71538
5934.61808	1.70691
5932.56458	1.69181
5930.51108	1.68062
5928.45758	1.67665
5926.40408	1.67760
5924.35058	1.67719
5922.29707	1.68111
5920.24357	1.68984
5918.19007	1.68875
5916.13657	1.68171
5914.08307	1.67885
5912.02957	1.67483
5909.97607	1.67068
5907.92257	1.67328
5905.86907	1.67756
5903.81556	1.68736
5901.76206	1.70921
5899.70856	1.71956
5897.65506	1.70457
5895.60156	1.68833
5893.54806	1.68569
5891.49456	1.68470
5889.44106	1.67972
5887.38756	1.67716
5885.33405	1.68301
5883.28055	1.69138
5881.22705	1.69220
5879.17355	1.68651
5877.12005	1.67313
5875.06655	1.65793
5873.01305	1.66069
5870.95955	1.67305
5868.90605	1.67638
5866.85255	1.68398
5864.79904	1.69772
5862.74554	1.70376
5860.69204	1.70308
5858.63854	1.69564
5856.58504	1.68982
5854.53154	1.69814
5852.47804	1.70743
5850.42454	1.69921
5848.37104	1.68666
5846.31753	1.68821
5844.26403	1.69134
5842.21053	1.68453
5840.15703	1.67962
5838.10353	1.68366
5836.05003	1.69068
5833.99653	1.69764
5831.94303	1.69590
5829.88953	1.69382
5827.83602	1.69650
5825.78252	1.69156
5823.72902	1.68224
5821.67552	1.67149
5819.62202	1.66451
5817.56852	1.66308
5815.51502	1.65763
5813.46152	1.65579
5811.40802	1.67055
5809.35452	1.69248
5807.30101	1.69667
5805.24751	1.68432
5803.19401	1.68100
5801.14051	1.69126
5799.08701	1.69597
5797.03351	1.68499
5794.98001	1.67293
5792.92651	1.66348
5790.87301	1.65588
5788.81950	1.66249
5786.76600	1.68022
5784.71250	1.69642
5782.65900	1.70384
5780.60550	1.70223
5778.55200	1.69628
5776.49850	1.68787
5774.44500	1.68283
5772.39150	1.68240
5770.33800	1.67806
5768.28449	1.67256
5766.23099	1.67085
5764.17749	1.67020
5762.12399	1.66769
5760.07049	1.65819
5758.01699	1.65217
5755.96349	1.65937
5753.90999	1.66470
5751.85649	1.66303
5749.80298	1.66212
5747.74948	1.66485
5745.69598	1.66786
5743.64248	1.66317
5741.58898	1.65570
5739.53548	1.65443
5737.48198	1.66142
5735.42848	1.67243
5733.37498	1.67798
5731.32147	1.67560
5729.26797	1.66802
5727.21447	1.66451
5725.16097	1.66524
5723.10747	1.65807
5721.05397	1.65176
5719.00047	1.66011
5716.94697	1.67661
5714.89347	1.68432
5712.83997	1.67028
5710.78646	1.64713
5708.73296	1.64230
5706.67946	1.65860
5704.62596	1.67269
5702.57246	1.67405
5700.51896	1.67192
5698.46546	1.67439
5696.41196	1.68252
5694.35846	1.68772
5692.30495	1.68148
5690.25145	1.66532
5688.19795	1.65129
5686.14445	1.65082
5684.09095	1.66318
5682.03745	1.67354
5679.98395	1.66756
5677.93045	1.65342
5675.87695	1.64906
5673.82345	1.65007
5671.76994	1.64814
5669.71644	1.64992
5667.66294	1.65592
5665.60944	1.66305
5663.55594	1.66461
5661.50244	1.66097
5659.44894	1.66317
5657.39544	1.66848
5655.34194	1.66902
5653.28843	1.66405
5651.23493	1.65876
5649.18143	1.66069
5647.12793	1.66340
5645.07443	1.65903
5643.02093	1.65527
5640.96743	1.66176
5638.91393	1.67041
5636.86043	1.67044
5634.80692	1.66459
5632.75342	1.65689
5630.69992	1.65501
5628.64642	1.65814
5626.59292	1.65747
5624.53942	1.65629
5622.48592	1.65940
5620.43242	1.66177
5618.37892	1.65633
5616.32542	1.64981
5614.27191	1.65139
5612.21841	1.65768
5610.16491	1.65996
5608.11141	1.65628
5606.05791	1.65301
5604.00441	1.65333
5601.95091	1.65271
5599.89741	1.64746
5597.84391	1.64430
5595.79040	1.65133
5593.73690	1.66042
5591.68340	1.65832
5589.62990	1.64982
5587.57640	1.64774
5585.52290	1.65541
5583.46940	1.66027
5581.41590	1.65260
5579.36240	1.63914
5577.30889	1.63048
5575.25539	1.63281
5573.20189	1.64085
5571.14839	1.64869
5569.09489	1.65350
5567.04139	1.64799
5564.98789	1.64140
5562.93439	1.64721
5560.88089	1.65572
5558.82739	1.65951
5556.77388	1.66144
5554.72038	1.66131
5552.66688	1.66369
5550.61338	1.67083
5548.55988	1.67604
5546.50638	1.67155
5544.45288	1.65784
5542.39938	1.64300
5540.34588	1.63460
5538.29237	1.63547
5536.23887	1.64156
5534.18537	1.64615
5532.13187	1.65041
5530.07837	1.65667
5528.02487	1.66155
5525.97137	1.66477
5523.91787	1.66413
5521.86437	1.65610
5519.81087	1.64490
5517.75736	1.63702
5515.70386	1.63431
5513.65036	1.63662
5511.59686	1.63806
5509.54336	1.63320
5507.48986	1.63404
5505.43636	1.64887
5503.38286	1.66139
5501.32936	1.65668
5499.27585	1.64402
5497.22235	1.63618
5495.16885	1.63064
5493.11535	1.62705
5491.06185	1.63140
5489.00835	1.63472
5486.95485	1.63146
5484.90135	1.63300
5482.84785	1.63981
5480.79434	1.64364
5478.74084	1.64369
5476.68734	1.64115
5474.63384	1.63490
5472.58034	1.62835
5470.52684	1.62513
5468.47334	1.62490
5466.41984	1.62970
5464.36634	1.63983
5462.31284	1.64659
5460.25933	1.64578
5458.20583	1.63825
5456.15233	1.63047
5454.09883	1.63360
5452.04533	1.63953
5449.99183	1.63816
5447.93833	1.63399
5445.88483	1.62706
5443.83133	1.62004
5441.77782	1.62127
5439.72432	1.62492
5437.67082	1.62315
5435.61732	1.61765
5433.56382	1.61374
5431.51032	1.62113
5429.45682	1.63677
5427.40332	1.64330
5425.34982	1.63531
5423.29631	1.62584
5421.24281	1.62340
5419.18931	1.62128
5417.13581	1.61700
5415.08231	1.61511
5413.02881	1.61328
5410.97531	1.60941
5408.92181	1.60833
5406.86831	1.61271
5404.81481	1.61848
5402.76130	1.61764
5400.70780	1.61351
5398.65430	1.61499
5396.60080	1.61492
5394.54730	1.61073
5392.49380	1.61225
5390.44030	1.61281
5388.38680	1.60582
5386.33330	1.60263
5384.27979	1.60850
5382.22629	1.61565
5380.17279	1.61974
5378.11929	1.61763
5376.06579	1.60814
5374.01229	1.59829
5371.95879	1.59611
5369.90529	1.59914
5367.85179	1.60320
5365.79829	1.60789
5363.74478	1.60545
5361.69128	1.59560
5359.63778	1.59297
5357.58428	1.59887
5355.53078	1.60341
5353.47728	1.60808
5351.42378	1.61279
5349.37028	1.60926
5347.31678	1.60061
5345.26327	1.59393
5343.20977	1.59196
5341.15627	1.59623
5339.10277	1.60472
5337.04927	1.60904
5334.99577	1.60618
5332.94227	1.60347
5330.88877	1.60462
5328.83527	1.60606
5326.78176	1.60605
5324.72826	1.60443
5322.67476	1.60408
5320.62126	1.61097
5318.56776	1.61705
5316.51426	1.61357
5314.46076	1.60828
5312.40726	1.60728
5310.35376	1.61090
5308.30026	1.61342
5306.24675	1.60761
5304.19325	1.59969
5302.13975	1.59547
5300.08625	1.59493
5298.03275	1.59979
5295.97925	1.60605
5293.92575	1.60863
5291.87225	1.60956
5289.81875	1.61191
5287.76524	1.61575
5285.71174	1.61826
5283.65824	1.61610
5281.60474	1.60832
5279.55124	1.60246
5277.49774	1.60910
5275.44424	1.62223
5273.39074	1.62573
5271.33724	1.61811
5269.28374	1.61225
5267.23023	1.61565
5265.17673	1.62061
5263.12323	1.61851
5261.06973	1.61597
5259.01623	1.62109
5256.96273	1.62805
5254.90923	1.62680
5252.85573	1.62184
5250.80223	1.62261
5248.74872	1.62441
5246.69522	1.62311
5244.64172	1.62382
5242.58822	1.62826
5240.53472	1.63392
5238.48122	1.63598
5236.42772	1.63070
5234.37422	1.62465
5232.32072	1.62443
5230.26721	1.62802
5228.21371	1.63501
5226.16021	1.63971
5224.10671	1.63572
5222.05321	1.63424
5219.99971	1.64248
5217.94621	1.65331
5215.89271	1.65938
5213.83921	1.66441
5211.78571	1.66772
5209.73220	1.66081
5207.67870	1.64940
5205.62520	1.64264
5203.57170	1.64194
5201.51820	1.64723
5199.46470	1.65170
5197.41120	1.64902
5195.35770	1.64453
5193.30420	1.64218
5191.25069	1.64157
5189.19719	1.64481
5187.14369	1.64962
5185.09019	1.65030
5183.03669	1.64985
5180.98319	1.65243
5178.92969	1.65368
5176.87619	1.65124
5174.82269	1.64932
5172.76918	1.64993
5170.71568	1.65027
5168.66218	1.65036
5166.60868	1.65342
5164.55518	1.65700
5162.50168	1.65497
5160.44818	1.64971
5158.39468	1.64746
5156.34118	1.64648
5154.28768	1.64482
5152.23417	1.64567
5150.18067	1.64590
5148.12717	1.64205
5146.07367	1.64150
5144.02017	1.64774
5141.96667	1.65059
5139.91317	1.64685
5137.85967	1.64785
5135.80617	1.65227
5133.75266	1.65027
5131.69916	1.64481
5129.64566	1.64163
5127.59216	1.64322
5125.53866	1.64500
5123.48516	1.64274
5121.43166	1.64184
5119.37816	1.64457
5117.32466	1.64600
5115.27116	1.64311
5113.21765	1.64197
5111.16415	1.64528
5109.11065	1.64593
5107.05715	1.64309
5105.00365	1.64420
5102.95015	1.64925
5100.89665	1.65106
5098.84315	1.64991
5096.78965	1.64854
5094.73614	1.64932
5092.68264	1.65116
5090.62914	1.64928
5088.57564	1.64636
5086.52214	1.64468
5084.46864	1.64384
5082.41514	1.64236
5080.36164	1.63686
5078.30814	1.63039
5076.25463	1.63072
5074.20113	1.63840
5072.14763	1.64427
5070.09413	1.64388
5068.04063	1.64240
5065.98713	1.64346
5063.93363	1.64669
5061.88013	1.64834
5059.82663	1.64527
5057.77313	1.64152
5055.71962	1.64119
5053.66612	1.64237
5051.61262	1.64377
5049.55912	1.64269
5047.50562	1.63747
5045.45212	1.63561
5043.39862	1.63931
5041.34512	1.64443
5039.29162	1.64856
5037.23811	1.64588
5035.18461	1.63481
5033.13111	1.62546
5031.07761	1.62537
5029.02411	1.62877
5026.97061	1.63124
5024.91711	1.63435
5022.86361	1.63590
5020.81011	1.63560
5018.75661	1.63602
5016.70310	1.63940
5014.64960	1.64389
5012.59610	1.64412
5010.54260	1.64011
5008.48910	1.63595
5006.43560	1.63565
5004.38210	1.63933
5002.32860	1.64011
5000.27510	1.63610
4998.22159	1.63267
4996.16809	1.63166
4994.11459	1.63446
4992.06109	1.63846
4990.00759	1.63692
4987.95409	1.63496
4985.90059	1.63691
4983.84709	1.63518
4981.79359	1.63037
4979.74008	1.63093
4977.68658	1.63754
4975.63308	1.64269
4973.57958	1.64113
4971.52608	1.63923
4969.47258	1.63943
4967.41908	1.63582
4965.36558	1.63065
4963.31208	1.62978
4961.25858	1.63185
4959.20507	1.63340
4957.15157	1.63636
4955.09807	1.64299
4953.04457	1.64578
4950.99107	1.63803
4948.93757	1.63084
4946.88407	1.63159
4944.83057	1.63287
4942.77707	1.63297
4940.72356	1.63455
4938.67006	1.63665
4936.61656	1.63821
4934.56306	1.63687
4932.50956	1.63424
4930.45606	1.63442
4928.40256	1.63462
4926.34906	1.63505
4924.29556	1.63626
4922.24205	1.63457
4920.18855	1.63402
4918.13505	1.63563
4916.08155	1.63644
4914.02805	1.63893
4911.97455	1.64104
4909.92105	1.63911
4907.86755	1.63869
4905.81405	1.64279
4903.76055	1.64483
4901.70704	1.64306
4899.65354	1.64119
4897.60004	1.64200
4895.54654	1.64575
4893.49304	1.64762
4891.43954	1.64534
4889.38604	1.64377
4887.33254	1.64665
4885.27904	1.65005
4883.22553	1.64780
4881.17203	1.64183
4879.11853	1.63886
4877.06503	1.64234
4875.01153	1.64906
4872.95803	1.65256
4870.90453	1.65133
4868.85103	1.64698
4866.79753	1.64470
4864.74403	1.64831
4862.69052	1.65087
4860.63702	1.64833
4858.58352	1.64713
4856.53002	1.64904
4854.47652	1.64934
4852.42302	1.64840
4850.36952	1.64948
4848.31602	1.65239
4846.26252	1.65339
4844.20901	1.65110
4842.15551	1.65010
4840.10201	1.65128
4838.04851	1.65061
4835.99501	1.64484
4833.94151	1.63857
4831.88801	1.64109
4829.83451	1.64893
4827.78101	1.65266
4825.72750	1.65146
4823.67400	1.64852
4821.62050	1.64821
4819.56700	1.65090
4817.51350	1.65294
4815.46000	1.65484
4813.40650	1.65598
4811.35300	1.65412
4809.29950	1.64999
4807.24600	1.64614
4805.19249	1.64610
4803.13899	1.64878
4801.08549	1.65082
4799.03199	1.65351
4796.97849	1.65671
4794.92499	1.65780
4792.87149	1.65612
4790.81799	1.65526
4788.76449	1.65749
4786.71098	1.65674
4784.65748	1.65397
4782.60398	1.65659
4780.55048	1.66180
4778.49698	1.66376
4776.44348	1.66285
4774.38998	1.66085
4772.33648	1.65835
4770.28298	1.65860
4768.22947	1.66235
4766.17597	1.66381
4764.12247	1.66224
4762.06897	1.66343
4760.01547	1.66694
4757.96197	1.66738
4755.90847	1.66476
4753.85497	1.66250
4751.80147	1.66129
4749.74797	1.65962
4747.69446	1.65923
4745.64096	1.66302
4743.58746	1.66680
4741.53396	1.66647
4739.48046	1.66607
4737.42696	1.66747
4735.37346	1.66817
4733.31996	1.66611
4731.26646	1.66256
4729.21295	1.66041
4727.15945	1.66072
4725.10595	1.66484
4723.05245	1.66722
4720.99895	1.66502
4718.94545	1.66725
4716.89195	1.67313
4714.83845	1.67414
4712.78495	1.66942
4710.73145	1.66284
4708.67794	1.66031
4706.62444	1.66240
4704.57094	1.66434
4702.51744	1.66548
4700.46394	1.66660
4698.41044	1.66680
4696.35694	1.66577
4694.30344	1.66482
4692.24994	1.66538
4690.19643	1.66770
4688.14293	1.67225
4686.08943	1.67650
4684.03593	1.67669
4681.98243	1.67347
4679.92893	1.66889
4677.87543	1.66776
4675.82193	1.67164
4673.76843	1.67377
4671.71492	1.67193
4669.66142	1.67049
4667.60792	1.67066
4665.55442	1.67075
4663.50092	1.66981
4661.44742	1.66756
4659.39392	1.66693
4657.34042	1.66937
4655.28692	1.66919
4653.23342	1.66723
4651.17991	1.66923
4649.12641	1.67169
4647.07291	1.67031
4645.01941	1.66731
4642.96591	1.66514
4640.91241	1.66595
4638.85891	1.66904
4636.80541	1.67021
4634.75191	1.66934
4632.69840	1.66765
4630.64490	1.66563
4628.59140	1.66808
4626.53790	1.67568
4624.48440	1.67721
4622.43090	1.66994
4620.37740	1.66582
4618.32390	1.66515
4616.27040	1.66297
4614.21690	1.66330
4612.16339	1.66354
4610.10989	1.66049
4608.05639	1.66028
4606.00289	1.66367
4603.94939	1.66644
4601.89589	1.66716
4599.84239	1.66622
4597.78889	1.66573
4595.73539	1.66811
4593.68188	1.67042
4591.62838	1.66947
4589.57488	1.66771
4587.52138	1.66725
4585.46788	1.66769
4583.41438	1.66828
4581.36088	1.66834
4579.30738	1.66628
4577.25388	1.66412
4575.20037	1.66402
4573.14687	1.66469
4571.09337	1.66522
4569.03987	1.66417
4566.98637	1.66267
4564.93287	1.66335
4562.87937	1.66527
4560.82587	1.66571
4558.77237	1.66540
4556.71887	1.66552
4554.66536	1.66613
4552.61186	1.66805
4550.55836	1.66990
4548.50486	1.67054
4546.45136	1.67016
4544.39786	1.66830
4542.34436	1.66772
4540.29086	1.66928
4538.23736	1.66977
4536.18385	1.66945
4534.13035	1.66845
4532.07685	1.66642
4530.02335	1.66540
4527.96985	1.66619
4525.91635	1.66866
4523.86285	1.67236
4521.80935	1.67526
4519.75585	1.67331
4517.70234	1.66703
4515.64884	1.66253
4513.59534	1.66225
4511.54184	1.66660
4509.48834	1.67240
4507.43484	1.67244
4505.38134	1.67110
4503.32784	1.67366
4501.27434	1.67460
4499.22084	1.67315
4497.16733	1.67341
4495.11383	1.67627
4493.06033	1.67970
4491.00683	1.68079
4488.95333	1.68063
4486.89983	1.68194
4484.84633	1.68082
4482.79283	1.67545
4480.73933	1.67315
4478.68582	1.67676
4476.63232	1.68041
4474.57882	1.67871
4472.52532	1.67586
4470.47182	1.67799
4468.41832	1.68165
4466.36482	1.68361
4464.31132	1.68664
4462.25782	1.68976
4460.20432	1.68992
4458.15081	1.68930
4456.09731	1.69153
4454.04381	1.69654
4451.99031	1.69925
4449.93681	1.69763
4447.88331	1.69549
4445.82981	1.69463
4443.77631	1.69527
4441.72281	1.69773
4439.66930	1.70138
4437.61580	1.70481
4435.56230	1.70814
4433.50880	1.71295
4431.45530	1.71755
4429.40180	1.71862
4427.34830	1.71697
4425.29480	1.71596
4423.24130	1.71656
4421.18779	1.71844
4419.13429	1.72375
4417.08079	1.73365
4415.02729	1.74217
4412.97379	1.74319
4410.92029	1.73810
4408.86679	1.73181
4406.81329	1.73235
4404.75979	1.74122
4402.70629	1.74759
4400.65278	1.74748
4398.59928	1.74562
4396.54578	1.74465
4394.49228	1.74676
4392.43878	1.74854
4390.38528	1.74580
4388.33178	1.74343
4386.27828	1.74748
4384.22478	1.75679
4382.17127	1.76407
4380.11777	1.76411
4378.06427	1.76178
4376.01077	1.76342
4373.95727	1.76644
4371.90377	1.76826
4369.85027	1.77074
4367.79677	1.77378
4365.74327	1.77433
4363.68976	1.77347
4361.63626	1.77545
4359.58276	1.78120
4357.52926	1.78820
4355.47576	1.79265
4353.42226	1.79495
4351.36876	1.79654
4349.31526	1.79780
4347.26176	1.79867
4345.20826	1.80031
4343.15475	1.80506
4341.10125	1.80708
4339.04775	1.80377
4336.99425	1.80398
4334.94075	1.81081
4332.88725	1.81635
4330.83375	1.81594
4328.78025	1.81356
4326.72675	1.81233
4324.67324	1.81083
4322.61974	1.80737
4320.56624	1.80326
4318.51274	1.79963
4316.45924	1.79642
4314.40574	1.79394
4312.35224	1.79377
4310.29874	1.79545
4308.24524	1.79357
4306.19174	1.78962
4304.13823	1.79012
4302.08473	1.79328
4300.03123	1.79583
4297.97773	1.79566
4295.92423	1.79215
4293.87073	1.79003
4291.81723	1.79170
4289.76373	1.79448
4287.71023	1.79405
4285.65672	1.79180
4283.60322	1.79373
4281.54972	1.79764
4279.49622	1.79720
4277.44272	1.79352
4275.38922	1.79019
4273.33572	1.78964
4271.28222	1.79226
4269.22872	1.79570
4267.17521	1.79850
4265.12171	1.80060
4263.06821	1.80220
4261.01471	1.80308
4258.96121	1.80353
4256.90771	1.80248
4254.85421	1.80089
4252.80071	1.80152
4250.74721	1.80129
4248.69371	1.79790
4246.64020	1.79403
4244.58670	1.79077
4242.53320	1.78807
4240.47970	1.78871
4238.42620	1.79088
4236.37270	1.78946
4234.31920	1.78765
4232.26570	1.78739
4230.21220	1.78522
4228.15869	1.78291
4226.10519	1.78387
4224.05169	1.78481
4221.99819	1.78317
4219.94469	1.78168
4217.89119	1.78104
4215.83769	1.78241
4213.78419	1.78764
4211.73069	1.79134
4209.67719	1.78812
4207.62368	1.78375
4205.57018	1.78427
4203.51668	1.78562
4201.46318	1.78476
4199.40968	1.78523
4197.35618	1.78743
4195.30268	1.78921
4193.24918	1.79160
4191.19568	1.79391
4189.14217	1.79123
4187.08867	1.78430
4185.03517	1.78192
4182.98167	1.78535
4180.92817	1.78742
4178.87467	1.78732
4176.82117	1.78880
4174.76767	1.79024
4172.71417	1.78817
4170.66066	1.78608
4168.60716	1.78803
4166.55366	1.79015
4164.50016	1.78871
4162.44666	1.78609
4160.39316	1.78580
4158.33966	1.78737
4156.28616	1.78837
4154.23266	1.78853
4152.17916	1.78799
4150.12565	1.78812
4148.07215	1.78927
4146.01865	1.78863
4143.96515	1.78598
4141.91165	1.78359
4139.85815	1.78367
4137.80465	1.78550
4135.75115	1.78667
4133.69765	1.78780
4131.64414	1.78899
4129.59064	1.78682
4127.53714	1.78021
4125.48364	1.77626
4123.43014	1.78036
4121.37664	1.78505
4119.32314	1.78392
4117.26964	1.78148
4115.21614	1.78194
4113.16263	1.78594
4111.10913	1.79087
4109.05563	1.79228
4107.00213	1.79198
4104.94863	1.79264
4102.89513	1.79206
4100.84163	1.79064
4098.78813	1.79175
4096.73463	1.79440
4094.68113	1.79408
4092.62762	1.79008
4090.57412	1.78620
4088.52062	1.78587
4086.46712	1.78864
4084.41362	1.79197
4082.36012	1.79456
4080.30662	1.79510
4078.25312	1.79466
4076.19962	1.79542
4074.14611	1.79592
4072.09261	1.79552
4070.03911	1.79594
4067.98561	1.79663
4065.93211	1.79606
4063.87861	1.79605
4061.82511	1.79829
4059.77161	1.80060
4057.71811	1.80140
4055.66461	1.80174
4053.61110	1.80287
4051.55760	1.80392
4049.50410	1.80472
4047.45060	1.80614
4045.39710	1.80490
4043.34360	1.80212
4041.29010	1.80270
4039.23660	1.80403
4037.18310	1.80325
4035.12959	1.80295
4033.07609	1.80538
4031.02259	1.80906
4028.96909	1.81097
4026.91559	1.80930
4024.86209	1.80587
4022.80859	1.80309
4020.75509	1.80069
4018.70159	1.80043
4016.64808	1.80232
4014.59458	1.80452
4012.54108	1.80627
4010.48758	1.80577
4008.43408	1.80419
4006.38058	1.80428
4004.32708	1.80574
4002.27358	1.80474
4000.22008	1.80034
3998.16658	1.79789
3996.11307	1.79916
3994.05957	1.79995
3992.00607	1.79950
3989.95257	1.79956
3987.89907	1.79909
3985.84557	1.79890
3983.79207	1.80064
3981.73857	1.80183
3979.68507	1.80078
3977.63156	1.80116
3975.57806	1.80462
3973.52456	1.80776
3971.47106	1.80773
3969.41756	1.80493
3967.36406	1.80226
3965.31056	1.80190
3963.25706	1.80394
3961.20356	1.80380
3959.15006	1.79954
3957.09655	1.79704
3955.04305	1.79901
3952.98955	1.80357
3950.93605	1.80560
3948.88255	1.80076
3946.82905	1.79417
3944.77555	1.79168
3942.72205	1.79245
3940.66855	1.79516
3938.61504	1.79877
3936.56154	1.80146
3934.50804	1.80268
3932.45454	1.80102
3930.40104	1.79594
3928.34754	1.79125
3926.29404	1.79010
3924.24054	1.79257
3922.18704	1.79416
3920.13353	1.79187
3918.08003	1.78986
3916.02653	1.79251
3913.97303	1.79730
3911.91953	1.79952
3909.86603	1.79777
3907.81253	1.79486
3905.75903	1.79418
3903.70553	1.79568
3901.65203	1.79604
3899.59852	1.79470
3897.54502	1.79338
3895.49152	1.79143
3893.43802	1.78914
3891.38452	1.78908
3889.33102	1.79168
3887.27752	1.79439
3885.22402	1.79558
3883.17052	1.79561
3881.11701	1.79317
3879.06351	1.78932
3877.01001	1.78908
3874.95651	1.79069
3872.90301	1.79167
3870.84951	1.79176
3868.79601	1.79104
3866.74251	1.78997
3864.68901	1.78897
3862.63550	1.78949
3860.58200	1.79155
3858.52850	1.79398
3856.47500	1.79388
3854.42150	1.79008
3852.36800	1.79096
3850.31450	1.79501
3848.26100	1.79503
3846.20750	1.79275
3844.15400	1.78999
3842.10049	1.78705
3840.04699	1.78684
3837.99349	1.79080
3835.93999	1.79274
3833.88649	1.79084
3831.83299	1.79017
3829.77949	1.79135
3827.72599	1.79095
3825.67249	1.79102
3823.61898	1.79363
3821.56548	1.79643
3819.51198	1.79606
3817.45848	1.79262
3815.40498	1.79055
3813.35148	1.79189
3811.29798	1.79476
3809.24448	1.79756
3807.19098	1.79719
3805.13748	1.79492
3803.08397	1.79524
3801.03047	1.79665
3798.97697	1.79947
3796.92347	1.80218
3794.86997	1.80033
3792.81647	1.79805
3790.76297	1.79835
3788.70947	1.79894
3786.65597	1.79950
3784.60246	1.79958
3782.54896	1.79800
3780.49546	1.79562
3778.44196	1.79377
3776.38846	1.79409
3774.33496	1.79641
3772.28146	1.79869
3770.22796	1.80119
3768.17446	1.80410
3766.12095	1.80563
3764.06745	1.80359
3762.01395	1.79828
3759.96045	1.79547
3757.90695	1.79929
3755.85345	1.80491
3753.79995	1.80729
3751.74645	1.80951
3749.69295	1.81570
3747.63945	1.81781
3745.58594	1.81506
3743.53244	1.81154
3741.47894	1.80920
3739.42544	1.80823
3737.37194	1.80753
3735.31844	1.80889
3733.26494	1.81449
3731.21144	1.81630
3729.15794	1.81301
3727.10443	1.81221
3725.05093	1.81899
3722.99743	1.82682
3720.94393	1.82838
3718.89043	1.82867
3716.83693	1.83042
3714.78343	1.83203
3712.72993	1.83537
3710.67643	1.84274
3708.62292	1.84845
3706.56942	1.84862
3704.51592	1.84815
3702.46242	1.85056
3700.40892	1.85557
3698.35542	1.86205
3696.30192	1.86791
3694.24842	1.87043
3692.19492	1.87154
3690.14142	1.87642
3688.08791	1.88355
3686.03441	1.88820
3683.98091	1.89115
3681.92741	1.89247
3679.87391	1.89134
3677.82041	1.89161
3675.76691	1.90403
3673.71341	1.92387
3671.65991	1.93218
3669.60640	1.93174
3667.55290	1.93257
3665.49940	1.93478
3663.44590	1.93701
3661.39240	1.94092
3659.33890	1.94445
3657.28540	1.94705
3655.23190	1.95160
3653.17840	1.95745
3651.12490	1.96598
3649.07139	1.97914
3647.01789	1.98498
3644.96439	1.98517
3642.91089	1.98881
3640.85739	1.99551
3638.80389	2.00068
3636.75039	2.00247
3634.69689	2.00209
3632.64339	2.00140
3630.58988	2.00489
3628.53638	2.01621
3626.48288	2.02541
3624.42938	2.02568
3622.37588	2.02456
3620.32238	2.02744
3618.26888	2.02787
3616.21538	2.02538
3614.16188	2.03261
3612.10837	2.04610
3610.05487	2.04970
3608.00137	2.05066
3605.94787	2.05825
3603.89437	2.05997
3601.84087	2.05623
3599.78737	2.06000
3597.73387	2.06916
3595.68037	2.07192
3593.62687	2.06981
3591.57336	2.07193
3589.51986	2.07917
3587.46636	2.08679
3585.41286	2.08574
3583.35936	2.07977
3581.30586	2.07930
3579.25236	2.08054
3577.19886	2.07890
3575.14536	2.07946
3573.09185	2.08136
3571.03835	2.08095
3568.98485	2.07874
3566.93135	2.08053
3564.87785	2.09091
3562.82435	2.10023
3560.77085	2.10349
3558.71735	2.10172
3556.66385	2.09750
3554.61035	2.09558
3552.55684	2.09908
3550.50334	2.10601
3548.44984	2.11035
3546.39634	2.10979
3544.34284	2.10845
3542.28934	2.10801
3540.23584	2.10836
3538.18234	2.10954
3536.12884	2.10847
3534.07533	2.10493
3532.02183	2.10264
3529.96833	2.10321
3527.91483	2.10633
3525.86133	2.10843
3523.80783	2.10702
3521.75433	2.10501
3519.70083	2.10325
3517.64733	2.09965
3515.59382	2.09677
3513.54032	2.09558
3511.48682	2.09348
3509.43332	2.09422
3507.37982	2.10031
3505.32632	2.10603
3503.27282	2.10527
3501.21932	2.09964
3499.16582	2.09655
3497.11232	2.09676
3495.05881	2.09813
3493.00531	2.10030
3490.95181	2.10120
3488.89831	2.09989
3486.84481	2.09781
3484.79131	2.09641
3482.73781	2.09810
3480.68431	2.10136
3478.63081	2.10109
3476.57730	2.09928
3474.52380	2.10071
3472.47030	2.10455
3470.41680	2.10574
3468.36330	2.10116
3466.30980	2.09466
3464.25630	2.09131
3462.20280	2.09125
3460.14930	2.09371
3458.09579	2.09598
3456.04229	2.09463
3453.98879	2.09122
3451.93529	2.09217
3449.88179	2.10011
3447.82829	2.10828
3445.77479	2.10907
3443.72129	2.10309
3441.66779	2.09565
3439.61429	2.08960
3437.56078	2.08654
3435.50728	2.09057
3433.45378	2.10044
3431.40028	2.10582
3429.34678	2.10357
3427.29328	2.10071
3425.23978	2.09937
3423.18628	2.09957
3421.13278	2.10354
3419.07927	2.10824
3417.02577	2.10728
3414.97227	2.10142
3412.91877	2.09749
3410.86527	2.09944
3408.81177	2.10041
3406.75827	2.09574
3404.70477	2.09458
3402.65127	2.09813
3400.59777	2.10037
3398.54426	2.10261
3396.49076	2.10332
3394.43726	2.09896
3392.38376	2.09455
3390.33026	2.09425
3388.27676	2.09572
3386.22326	2.09691
3384.16976	2.09571
3382.11626	2.09608
3380.06275	2.10216
3378.00925	2.10735
3375.95575	2.10635
3373.90225	2.10055
3371.84875	2.09568
3369.79525	2.09505
3367.74175	2.09623
3365.68825	2.09875
3363.63475	2.10169
3361.58124	2.10187
3359.52774	2.10108
3357.47424	2.10135
3355.42074	2.10056
3353.36724	2.10008
3351.31374	2.10119
3349.26024	2.10008
3347.20674	2.09660
3345.15324	2.09236
3343.09974	2.08940
3341.04623	2.09084
3338.99273	2.09184
3336.93923	2.09055
3334.88573	2.09345
3332.83223	2.10052
3330.77873	2.10689
3328.72523	2.10765
3326.67173	2.10355
3324.61823	2.09986
3322.56472	2.09611
3320.51122	2.08969
3318.45772	2.08518
3316.40422	2.08903
3314.35072	2.09541
3312.29722	2.09505
3310.24372	2.09075
3308.19022	2.08973
3306.13672	2.09303
3304.08321	2.09844
3302.02971	2.10182
3299.97621	2.10092
3297.92271	2.09814
3295.86921	2.09485
3293.81571	2.09420
3291.76221	2.09856
3289.70871	2.10281
3287.65521	2.10148
3285.60171	2.09712
3283.54820	2.09601
3281.49470	2.09759
3279.44120	2.09666
3277.38770	2.09322
3275.33420	2.09031
3273.28070	2.08984
3271.22720	2.09083
3269.17370	2.09108
3267.12020	2.09205
3265.06669	2.09435
3263.01319	2.09567
3260.95969	2.09479
3258.90619	2.09363
3256.85269	2.09405
3254.79919	2.09497
3252.74569	2.09603
3250.69219	2.09863
3248.63869	2.10136
3246.58519	2.09999
3244.53168	2.09584
3242.47818	2.09285
3240.42468	2.09031
3238.37118	2.08805
3236.31768	2.08739
3234.26418	2.08633
3232.21068	2.08447
3230.15718	2.08530
3228.10368	2.08874
3226.05017	2.09184
3223.99667	2.09312
3221.94317	2.09257
3219.88967	2.09002
3217.83617	2.08642
3215.78267	2.08559
3213.72917	2.08880
3211.67567	2.09055
3209.62217	2.08996
3207.56866	2.09174
3205.51516	2.09381
3203.46166	2.09430
3201.40816	2.09508
3199.35466	2.09515
3197.30116	2.09392
3195.24766	2.09209
3193.19416	2.08906
3191.14066	2.08672
3189.08716	2.08595
3187.03365	2.08539
3184.98015	2.08612
3182.92665	2.08732
3180.87315	2.08691
3178.81965	2.08548
3176.76615	2.08370
3174.71265	2.08289
3172.65915	2.08563
3170.60565	2.08944
3168.55214	2.08948
3166.49864	2.08697
3164.44514	2.08555
3162.39164	2.08369
3160.33814	2.08252
3158.28464	2.08492
3156.23114	2.08735
3154.17764	2.08833
3152.12414	2.08705
3150.07064	2.08351
3148.01713	2.08269
3145.96363	2.08577
3143.91013	2.08801
3141.85663	2.08577
3139.80313	2.08218
3137.74963	2.08221
3135.69613	2.08346
3133.64263	2.08282
3131.58913	2.08245
3129.53562	2.08095
3127.48212	2.07844
3125.42862	2.07811
3123.37512	2.08013
3121.32162	2.08290
3119.26812	2.08310
3117.21462	2.08065
3115.16112	2.07899
3113.10762	2.07939
3111.05411	2.08064
3109.00061	2.08166
3106.94711	2.08059
3104.89361	2.07825
3102.84011	2.07911
3100.78661	2.08299
3098.73311	2.08715
3096.67961	2.08954
3094.62611	2.08827
3092.57261	2.08579
3090.51910	2.08504
3088.46560	2.08547
3086.41210	2.08539
3084.35860	2.08313
3082.30510	2.08117
3080.25160	2.08190
3078.19810	2.08197
3076.14460	2.08059
3074.09110	2.08172
3072.03759	2.08439
3069.98409	2.08389
3067.93059	2.08183
3065.87709	2.08162
3063.82359	2.08202
3061.77009	2.08086
3059.71659	2.07931
3057.66309	2.07987
3055.60959	2.08216
3053.55608	2.08348
3051.50258	2.08229
3049.44908	2.08091
3047.39558	2.08142
3045.34208	2.08182
3043.28858	2.08190
3041.23508	2.08314
3039.18158	2.08547
3037.12808	2.08840
3035.07458	2.09042
3033.02107	2.09076
3030.96757	2.08889
3028.91407	2.08610
3026.86057	2.08406
3024.80707	2.08323
3022.75357	2.08629
3020.70007	2.09204
3018.64657	2.09431
3016.59307	2.09212
3014.53956	2.09112
3012.48606	2.09283
3010.43256	2.09425
3008.37906	2.09385
3006.32556	2.09156
3004.27206	2.08989
3002.21856	2.09019
3000.16506	2.09141
2998.11156	2.09056
2996.05806	2.08732
2994.00455	2.08756
2991.95105	2.09106
2989.89755	2.09132
2987.84405	2.08625
2985.79055	2.07931
2983.73705	2.07294
2981.68355	2.06817
2979.63005	2.06715
2977.57655	2.06596
2975.52304	2.06205
2973.46954	2.06093
2971.41604	2.06467
2969.36254	2.06976
2967.30904	2.07435
2965.25554	2.07922
2963.20204	2.08163
2961.14854	2.07754
2959.09504	2.07280
2957.04153	2.07345
2954.98803	2.07449
2952.93453	2.07313
2950.88103	2.07219
2948.82753	2.06980
2946.77403	2.06531
2944.72053	2.06405
2942.66703	2.06686
2940.61353	2.06933
2938.56003	2.06986
2936.50652	2.06846
2934.45302	2.06455
2932.39952	2.05995
2930.34602	2.05849
2928.29252	2.06056
2926.23902	2.06157
2924.18552	2.05865
2922.13202	2.05347
2920.07852	2.04944
2918.02501	2.04929
2915.97151	2.05156
2913.91801	2.05385
2911.86451	2.05729
2909.81101	2.06098
2907.75751	2.06135
2905.70401	2.05860
2903.65051	2.05711
2901.59701	2.05849
2899.54351	2.05937
2897.49000	2.05762
2895.43650	2.05386
2893.38300	2.05036
2891.32950	2.05129
2889.27600	2.05661
2887.22250	2.06010
2885.16900	2.05993
2883.11550	2.05910
2881.06200	2.05859
2879.00849	2.05690
2876.95499	2.05433
2874.90149	2.05451
2872.84799	2.05738
2870.79449	2.06110
2868.74099	2.06374
2866.68749	2.06282
2864.63399	2.06069
2862.58049	2.05914
2860.52698	2.05715
2858.47348	2.05685
2856.41998	2.05963
2854.36648	2.06115
2852.31298	2.05888
2850.25948	2.05606
2848.20598	2.05443
2846.15248	2.05377
2844.09898	2.05504
2842.04548	2.05692
2839.99197	2.05597
2837.93847	2.05195
2835.88497	2.04851
2833.83147	2.04845
2831.77797	2.04944
2829.72447	2.04823
2827.67097	2.04617
2825.61747	2.04541
2823.56397	2.04530
2821.51046	2.04533
2819.45696	2.04588
2817.40346	2.04701
2815.34996	2.04805
2813.29646	2.04801
2811.24296	2.04746
2809.18946	2.04683
2807.13596	2.04627
2805.08246	2.04574
2803.02895	2.04437
2800.97545	2.04330
2798.92195	2.04386
2796.86845	2.04433
2794.81495	2.04435
2792.76145	2.04514
2790.70795	2.04635
2788.65445	2.04754
2786.60095	2.04776
2784.54745	2.04621
2782.49394	2.04452
2780.44044	2.04357
2778.38694	2.04154
2776.33344	2.03938
2774.27994	2.03954
2772.22644	2.04135
2770.17294	2.04225
2768.11944	2.04095
2766.06594	2.03981
2764.01243	2.04048
2761.95893	2.04136
2759.90543	2.04142
2757.85193	2.04090
2755.79843	2.03991
2753.74493	2.03951
2751.69143	2.03844
2749.63793	2.03457
2747.58443	2.03182
2745.53093	2.03372
2743.47742	2.03773
2741.42392	2.03976
2739.37042	2.03989
2737.31692	2.03981
2735.26342	2.03858
2733.20992	2.03624
2731.15642	2.03436
2729.10292	2.03420
2727.04942	2.03471
2724.99591	2.03273
2722.94241	2.03079
2720.88891	2.03364
2718.83541	2.03768
2716.78191	2.03799
2714.72841	2.03625
2712.67491	2.03539
2710.62141	2.03651
2708.56791	2.03769
2706.51440	2.03571
2704.46090	2.03308
2702.40740	2.03231
2700.35390	2.03128
2698.30040	2.03181
2696.24690	2.03637
2694.19340	2.03967
2692.13990	2.03753
2690.08640	2.03345
2688.03290	2.03031
2685.97939	2.03015
2683.92589	2.03320
2681.87239	2.03484
2679.81889	2.03407
2677.76539	2.03357
2675.71189	2.03254
2673.65839	2.03112
2671.60489	2.03254
2669.55139	2.03494
2667.49788	2.03582
2665.44438	2.03532
2663.39088	2.03185
2661.33738	2.02836
2659.28388	2.02846
2657.23038	2.02944
2655.17688	2.02934
2653.12338	2.03012
2651.06988	2.03043
2649.01637	2.02978
2646.96287	2.03019
2644.90937	2.02924
2642.85587	2.02860
2640.80237	2.02988
2638.74887	2.02905
2636.69537	2.02803
2634.64187	2.02986
2632.58837	2.03092
2630.53487	2.02901
2628.48136	2.02702
2626.42786	2.02699
2624.37436	2.02782
2622.32086	2.02765
2620.26736	2.02615
2618.21386	2.02556
2616.16036	2.02651
2614.10686	2.02646
2612.05336	2.02523
2609.99985	2.02507
2607.94635	2.02674
2605.89285	2.02821
2603.83935	2.02767
2601.78585	2.02660
2599.73235	2.02559
2597.67885	2.02390
2595.62535	2.02154
2593.57185	2.01815
2591.51835	2.01662
2589.46484	2.01909
2587.41134	2.02198
2585.35784	2.02348
2583.30434	2.02426
2581.25084	2.02405
2579.19734	2.02401
2577.14384	2.02426
2575.09034	2.02300
2573.03684	2.02156
2570.98333	2.02164
2568.92983	2.02158
2566.87633	2.02137
2564.82283	2.02205
2562.76933	2.02226
2560.71583	2.02151
2558.66233	2.02087
2556.60883	2.01951
2554.55533	2.01765
2552.50182	2.01744
2550.44832	2.01740
2548.39482	2.01679
2546.34132	2.01796
2544.28782	2.01951
2542.23432	2.01915
2540.18082	2.01811
2538.12732	2.01788
2536.07382	2.01885
2534.02032	2.02018
2531.96681	2.02120
2529.91331	2.02143
2527.85981	2.01865
2525.80631	2.01436
2523.75281	2.01454
2521.69931	2.01970
2519.64581	2.02303
2517.59231	2.02243
2515.53881	2.02272
2513.48530	2.02394
2511.43180	2.02349
2509.37830	2.02265
2507.32480	2.02234
2505.27130	2.02212
2503.21780	2.02240
2501.16430	2.02281
2499.11080	2.02249
2497.05730	2.02201
2495.00380	2.02238
2492.95029	2.02424
2490.89679	2.02707
2488.84329	2.02828
2486.78979	2.02697
2484.73629	2.02648
2482.68279	2.02816
2480.62929	2.03104
2478.57579	2.03392
2476.52229	2.03345
2474.46878	2.02903
2472.41528	2.02562
2470.36178	2.02613
2468.30828	2.02594
2466.25478	2.02302
2464.20128	2.02174
2462.14778	2.02268
2460.09428	2.02348
2458.04078	2.02240
2455.98727	2.02040
2453.93377	2.02312
2451.88027	2.02943
2449.82677	2.03130
2447.77327	2.02885
2445.71977	2.02709
2443.66627	2.02830
2441.61277	2.03133
2439.55927	2.03159
2437.50577	2.02919
2435.45226	2.02907
2433.39876	2.03111
2431.34526	2.03163
2429.29176	2.03222
2427.23826	2.03441
2425.18476	2.03445
2423.13126	2.03209
2421.07776	2.02881
2419.02426	2.02457
2416.97075	2.02258
2414.91725	2.02376
2412.86375	2.02460
2410.81025	2.02404
2408.75675	2.02339
2406.70325	2.02314
2404.64975	2.02340
2402.59625	2.02421
2400.54275	2.02560
2398.48924	2.02708
2396.43574	2.02705
2394.38224	2.02507
2392.32874	2.02455
2390.27524	2.02678
2388.22174	2.02718
2386.16824	2.02446
2384.11474	2.02184
2382.06124	2.02019
2380.00774	2.01926
2377.95423	2.01962
2375.90073	2.02070
2373.84723	2.02025
2371.79373	2.01745
2369.74023	2.01525
2367.68673	2.01392
2365.63323	2.01007
2363.57973	2.00428
2361.52623	2.00091
2359.47272	2.00323
2357.41922	2.00803
2355.36572	2.01121
2353.31222	2.01465
2351.25872	2.01663
2349.20522	2.01358
2347.15172	2.00691
2345.09822	2.00030
2343.04472	1.99756
2340.99122	1.99980
2338.93771	2.00358
2336.88421	2.00496
2334.83071	2.00258
2332.77721	1.99864
2330.72371	1.99921
2328.67021	2.00310
2326.61671	2.00381
2324.56321	2.00216
2322.50971	2.00088
2320.45620	2.00013
2318.40270	1.99924
2316.34920	1.99700
2314.29570	1.99420
2312.24220	1.99397
2310.18870	1.99464
2308.13520	1.99347
2306.08170	1.99266
2304.02820	1.99284
2301.97469	1.99361
2299.92119	1.99483
2297.86769	1.99520
2295.81419	1.99463
2293.76069	1.99471
2291.70719	1.99735
2289.65369	2.00066
2287.60019	2.00041
2285.54669	1.99767
2283.49319	1.99690
2281.43968	1.99794
2279.38618	1.99737
2277.33268	1.99533
2275.27918	1.99478
2273.22568	1.99541
2271.17218	1.99522
2269.11868	1.99451
2267.06518	1.99472
2265.01168	1.99547
2262.95817	1.99510
2260.90467	1.99468
2258.85117	1.99391
2256.79767	1.99137
2254.74417	1.98974
2252.69067	1.99142
2250.63717	1.99474
2248.58367	1.99571
2246.53017	1.99374
2244.47667	1.99203
2242.42316	1.99135
2240.36966	1.99163
2238.31616	1.99379
2236.26266	1.99526
2234.20916	1.99450
2232.15566	1.99312
2230.10216	1.99181
2228.04866	1.99246
2225.99516	1.99514
2223.94165	1.99659
2221.88815	1.99569
2219.83465	1.99466
2217.78115	1.99531
2215.72765	1.99664
2213.67415	1.99623
2211.62065	1.99421
2209.56715	1.99398
2207.51365	1.99509
2205.46014	1.99433
2203.40664	1.99282
2201.35314	1.99313
2199.29964	1.99446
2197.24614	1.99485
2195.19264	1.99607
2193.13914	1.99862
2191.08564	1.99880
2189.03214	1.99667
2186.97864	1.99520
2184.92513	1.99531
2182.87163	1.99626
2180.81813	1.99643
2178.76463	1.99514
2176.71113	1.99309
2174.65763	1.99241
2172.60413	1.99321
2170.55063	1.99324
2168.49713	1.99464
2166.44362	1.99758
2164.39012	1.99804
2162.33662	1.99604
2160.28312	1.99418
2158.22962	1.99534
2156.17612	1.99831
2154.12262	1.99986
2152.06912	2.00067
2150.01562	2.00097
2147.96211	2.00014
2145.90861	1.99948
2143.85511	2.00000
2141.80161	1.99961
2139.74811	1.99735
2137.69461	1.99684
2135.64111	1.99860
2133.58761	1.99973
2131.53411	2.00066
2129.48061	2.00080
2127.42710	1.99849
2125.37360	1.99558
2123.32010	1.99435
2121.26660	1.99493
2119.21310	1.99636
2117.15960	1.99890
2115.10610	2.00254
2113.05260	2.00489
2110.99910	2.00330
2108.94559	1.99855
2106.89209	1.99511
2104.83859	1.99480
2102.78509	1.99566
2100.73159	1.99628
2098.67809	1.99677
2096.62459	1.99801
2094.57109	1.99964
2092.51759	1.99960
2090.46409	1.99853
2088.41058	1.99895
2086.35708	1.99949
2084.30358	1.99896
2082.25008	1.99861
2080.19658	1.99948
2078.14308	2.00250
2076.08958	2.00493
2074.03608	2.00396
2071.98258	2.00198
2069.92907	2.00105
2067.87557	2.00093
2065.82207	2.00167
2063.76857	2.00228
2061.71507	2.00208
2059.66157	2.00249
2057.60807	2.00307
2055.55457	2.00273
2053.50107	2.00186
2051.44756	2.00172
2049.39406	2.00359
2047.34056	2.00488
2045.28706	2.00283
2043.23356	1.99978
2041.18006	1.99832
2039.12656	1.99804
2037.07306	1.99741
2035.01956	1.99765
2032.96606	2.00134
2030.91255	2.00563
2028.85905	2.00624
2026.80555	2.00435
2024.75205	2.00419
2022.69855	2.00558
2020.64505	2.00444
2018.59155	2.00193
2016.53805	2.00034
2014.48455	1.99980
2012.43104	2.00118
2010.37754	2.00327
2008.32404	2.00367
2006.27054	2.00182
2004.21704	1.99945
2002.16354	1.99926
2000.11004	2.00074
1998.05654	2.00150
1996.00304	2.00193
1993.94953	2.00256
1991.89603	2.00315
1989.84253	2.00296
1987.78903	2.00235
1985.73553	2.00294
1983.68203	2.00306
1981.62853	2.00141
1979.57503	2.00018
1977.52153	1.99984
1975.46803	1.99935
1973.41452	2.00026
1971.36102	2.00270
1969.30752	2.00424
1967.25402	2.00458
1965.20052	2.00522
1963.14702	2.00684
1961.09352	2.00844
1959.04002	2.00886
1956.98652	2.00770
1954.93301	2.00558
1952.87951	2.00427
1950.82601	2.00461
1948.77251	2.00568
1946.71901	2.00605
1944.66551	2.00525
1942.61201	2.00514
1940.55851	2.00756
1938.50501	2.01031
1936.45151	2.01085
1934.39800	2.00995
1932.34450	2.00952
1930.29100	2.01079
1928.23750	2.01315
1926.18400	2.01293
1924.13050	2.01000
1922.07700	2.00986
1920.02350	2.01352
1917.97000	2.01687
1915.91649	2.01768
1913.86299	2.01663
1911.80949	2.01553
1909.75599	2.01559
1907.70249	2.01629
1905.64899	2.01757
1903.59549	2.01874
1901.54199	2.01888
1899.48849	2.01938
1897.43498	2.02029
1895.38148	2.01894
1893.32798	2.01520
1891.27448	2.01336
1889.22098	2.01646
1887.16748	2.02151
1885.11398	2.02354
1883.06048	2.02205
1881.00698	2.01945
1878.95348	2.01822
1876.89997	2.01949
1874.84647	2.02169
1872.79297	2.02233
1870.73947	2.02314
1868.68597	2.02585
1866.63247	2.02706
1864.57897	2.02643
1862.52547	2.02573
1860.47197	2.02628
1858.41846	2.02903
1856.36496	2.03117
1854.31146	2.03054
1852.25796	2.03048
1850.20446	2.03245
1848.15096	2.03368
1846.09746	2.03458
1844.04396	2.03831
1841.99046	2.04249
1839.93696	2.04305
1837.88345	2.04209
1835.82995	2.04274
1833.77645	2.04357
1831.72295	2.04289
1829.66945	2.04395
1827.61595	2.04742
1825.56245	2.04972
1823.50895	2.05085
1821.45545	2.05250
1819.40194	2.05569
1817.34844	2.05869
1815.29494	2.05935
1813.24144	2.05967
1811.18794	2.06250
1809.13444	2.06706
1807.08094	2.07075
1805.02744	2.07325
1802.97394	2.07555
1800.92043	2.07914
1798.86693	2.08443
1796.81343	2.08850
1794.75993	2.08876
1792.70643	2.09028
1790.65293	2.10100
1788.59943	2.11055
1786.54593	2.11192
1784.49243	2.11209
1782.43893	2.11391
1780.38542	2.11908
1778.33192	2.12994
1776.27842	2.13850
1774.22492	2.14150
1772.17142	2.14637
1770.11792	2.15577
1768.06442	2.16593
1766.01092	2.17342
1763.95742	2.17674
1761.90391	2.18105
1759.85041	2.18895
1757.79691	2.19758
1755.74341	2.20175
1753.68991	2.19445
1751.63641	2.17634
1749.58291	2.14837
1747.52941	2.10891
1745.47591	2.06238
1743.42240	2.01561
1741.36890	1.97224
1739.31540	1.93200
1737.26190	1.89980
1735.20840	1.87394
1733.15490	1.85068
1731.10140	1.83239
1729.04790	1.81595
1726.99440	1.80303
1724.94090	1.79443
1722.88739	1.78819
1720.83389	1.78391
1718.78039	1.78703
1716.72689	1.80681
1714.67339	1.83144
1712.61989	1.84933
1710.56639	1.86539
1708.51289	1.88050
1706.45939	1.89613
1704.40588	1.91322
1702.35238	1.92684
1700.29888	1.94171
1698.24538	1.95641
1696.19188	1.96728
1694.13838	1.97750
1692.08488	1.98287
1690.03138	1.98556
1687.97788	1.98496
1685.92438	1.98394
1683.87087	1.99657
1681.81737	2.00991
1679.76387	2.01020
1677.71037	2.00864
1675.65687	2.01201
1673.60337	2.01866
1671.54987	2.02292
1669.49637	2.03017
1667.44287	2.03751
1665.38936	2.03806
1663.33586	2.03912
1661.28236	2.04438
1659.22886	2.04801
1657.17536	2.04677
1655.12186	2.04460
1653.06836	2.05477
1651.01486	2.06526
1648.96136	2.06408
1646.90785	2.06616
1644.85435	2.06751
1642.80085	2.06115
1640.74735	2.05491
1638.69385	2.05317
1636.64035	2.06083
1634.58685	2.07243
1632.53335	2.06953
1630.47985	2.06225
1628.42635	2.05977
1626.37284	2.06112
1624.31934	2.06417
1622.26584	2.06818
1620.21234	2.06921
1618.15884	2.06923
1616.10534	2.07225
1614.05184	2.07384
1611.99834	2.07269
1609.94484	2.07167
1607.89133	2.07120
1605.83783	2.07107
1603.78433	2.07182
1601.73083	2.07301
1599.67733	2.07413
1597.62383	2.07601
1595.57033	2.07905
1593.51683	2.08201
1591.46333	2.08434
1589.40982	2.08672
1587.35632	2.08761
1585.30282	2.08713
1583.24932	2.08872
1581.19582	2.09285
1579.14232	2.09670
1577.08882	2.10126
1575.03532	2.10739
1572.98182	2.10903
1570.92832	2.10841
1568.87481	2.11052
1566.82131	2.11323
1564.76781	2.11525
1562.71431	2.11671
1560.66081	2.12053
1558.60731	2.13539
1556.55381	2.13638
1554.50031	2.12788
1552.44681	2.12457
1550.39330	2.12428
1548.33980	2.12537
1546.28630	2.12650
1544.23280	2.12891
1542.17930	2.13128
1540.12580	2.12913
1538.07230	2.12635
1536.01880	2.12312
1533.96530	2.12310
1531.91180	2.12709
1529.85829	2.12549
1527.80479	2.11998
1525.75129	2.11588
1523.69779	2.11413
1521.64429	2.11397
1519.59079	2.10977
1517.53729	2.10418
1515.48379	2.10340
1513.43029	2.10213
1511.37678	2.09717
1509.32328	2.09207
1507.26978	2.09530
1505.21628	2.10572
1503.16278	2.10572
1501.10928	2.10246
1499.05578	2.10374
1497.00228	2.10937
1494.94878	2.11000
1492.89527	2.10449
1490.84177	2.10087
1488.78827	2.10297
1486.73477	2.10339
1484.68127	2.10066
1482.62777	2.09787
1480.57427	2.09362
1478.52077	2.08904
1476.46727	2.08797
1474.41377	2.09249
1472.36026	2.10301
1470.30676	2.11048
1468.25326	2.11160
1466.19976	2.11325
1464.14626	2.11709
1462.09276	2.11717
1460.03926	2.11429
1457.98576	2.11205
1455.93226	2.10609
1453.87875	2.09537
1451.82525	2.08430
1449.77175	2.07454
1447.71825	2.06669
1445.66475	2.05986
1443.61125	2.05454
1441.55775	2.05194
1439.50425	2.04938
1437.45075	2.04904
1435.39725	2.05561
1433.34374	2.05859
1431.29024	2.05841
1429.23674	2.06141
1427.18324	2.06454
1425.12974	2.06703
1423.07624	2.06913
1421.02274	2.06838
1418.96924	2.06788
1416.91574	2.06988
1414.86223	2.06893
1412.80873	2.06521
1410.75523	2.06214
1408.70173	2.05682
1406.64823	2.04600
1404.59473	2.03371
1402.54123	2.02419
1400.48773	2.01569
1398.43423	2.00665
1396.38072	1.99827
1394.32722	1.99022
1392.27372	1.98169
1390.22022	1.97456
1388.16672	1.97021
1386.11322	1.96519
1384.05972	1.95788
1382.00622	1.95440
1379.95272	1.95846
1377.89922	1.96508
1375.84571	1.96783
1373.79221	1.96818
1371.73871	1.96848
1369.68521	1.96765
1367.63171	1.96647
1365.57821	1.96546
1363.52471	1.96539
1361.47121	1.96656
1359.41771	1.96720
1357.36420	1.96827
1355.31070	1.97148
1353.25720	1.97472
1351.20370	1.97561
1349.15020	1.97429
1347.09670	1.97137
1345.04320	1.96960
1342.98970	1.97068
1340.93620	1.97218
1338.88269	1.97245
1336.82919	1.97426
1334.77569	1.97785
1332.72219	1.98054
1330.66869	1.98333
1328.61519	1.98697
1326.56169	1.98896
1324.50819	1.98842
1322.45469	1.98799
1320.40119	1.98841
1318.34768	1.98733
1316.29418	1.98511
1314.24068	1.98359
1312.18718	1.98235
1310.13368	1.97959
1308.08018	1.97544
1306.02668	1.97224
1303.97318	1.97007
1301.91968	1.96745
1299.86617	1.96535
1297.81267	1.96495
1295.75917	1.96543
1293.70567	1.96531
1291.65217	1.96392
1289.59867	1.96258
1287.54517	1.96108
1285.49167	1.95832
1283.43817	1.95558
1281.38467	1.95358
1279.33116	1.95194
1277.27766	1.94898
1275.22416	1.94476
1273.17066	1.94317
1271.11716	1.94448
1269.06366	1.94446
1267.01016	1.94295
1264.95666	1.94289
1262.90316	1.94334
1260.84965	1.94290
1258.79615	1.94344
1256.74265	1.94553
1254.68915	1.94774
1252.63565	1.94813
1250.58215	1.94506
1248.52865	1.94060
1246.47515	1.93740
1244.42165	1.93445
1242.36814	1.93046
1240.31464	1.92614
1238.26114	1.92264
1236.20764	1.92132
1234.15414	1.92273
1232.10064	1.92569
1230.04714	1.92905
1227.99364	1.93257
1225.94014	1.93642
1223.88664	1.94141
1221.83313	1.94810
1219.77963	1.95464
1217.72613	1.96035
1215.67263	1.96752
1213.61913	1.97358
1211.56563	1.97633
1209.51213	1.97871
1207.45863	1.97962
1205.40513	1.97795
1203.35162	1.97555
1201.29812	1.96943
1199.24462	1.95823
1197.19112	1.94717
1195.13762	1.93890
1193.08412	1.93273
1191.03062	1.92901
1188.97712	1.92798
1186.92362	1.92788
1184.87012	1.92600
1182.81661	1.91977
1180.76311	1.90954
1178.70961	1.89665
1176.65611	1.88059
1174.60261	1.86372
1172.54911	1.85043
1170.49561	1.84214
1168.44211	1.83628
1166.38861	1.83034
1164.33510	1.82460
1162.28160	1.82096
1160.22810	1.82051
1158.17460	1.82174
1156.12110	1.82182
1154.06760	1.81933
1152.01410	1.81525
1149.96060	1.81064
1147.90710	1.80598
1145.85359	1.80190
1143.80009	1.79993
1141.74659	1.80155
1139.69309	1.80576
1137.63959	1.81158
1135.58609	1.81873
1133.53259	1.82640
1131.47909	1.83528
1129.42559	1.84468
1127.37209	1.85167
1125.31858	1.85615
1123.26508	1.86090
1121.21158	1.86784
1119.15808	1.87465
1117.10458	1.87860
1115.05108	1.88050
1112.99758	1.88261
1110.94408	1.88589
1108.89058	1.89018
1106.83707	1.89613
1104.78357	1.90231
1102.73007	1.90650
1100.67657	1.90846
1098.62307	1.90790
1096.56957	1.90435
1094.51607	1.90015
1092.46257	1.89972
1090.40907	1.90504
1088.35556	1.91165
1086.30206	1.91248
1084.24856	1.90848
1082.19506	1.90622
1080.14156	1.90847
1078.08806	1.91142
1076.03456	1.90996
1073.98106	1.90393
1071.92756	1.89718
1069.87406	1.89513
1067.82055	1.89674
1065.76705	1.89510
1063.71355	1.89059
1061.66005	1.88788
1059.60655	1.88616
1057.55305	1.88339
1055.49955	1.88149
1053.44605	1.88149
1051.39255	1.88141
1049.33904	1.88124
1047.28554	1.87959
1045.23204	1.87457
1043.17854	1.86807
1041.12504	1.86014
1039.07154	1.85083
1037.01804	1.84046
1034.96454	1.82907
1032.91104	1.81819
1030.85754	1.80705
1028.80403	1.79598
1026.75053	1.78814
1024.69703	1.78340
1022.64353	1.78019
1020.59003	1.77994
1018.53653	1.78476
1016.48303	1.79349
1014.42953	1.80253
1012.37603	1.81054
1010.32252	1.81674
1008.26902	1.82038
1006.21552	1.82398
1004.16202	1.82943
1002.10852	1.83445
1000.05502	1.83784
998.00152	1.83995
995.94802	1.84048
993.89452	1.84101
991.84101	1.84179
989.78751	1.84261
987.73401	1.84499
985.68051	1.84778
983.62701	1.84921
981.57351	1.85032
979.52001	1.85117
977.46651	1.85120
975.41301	1.85317
973.35951	1.85594
971.30600	1.85531
969.25250	1.85374
967.19900	1.85314
965.14550	1.85194
963.09200	1.85044
961.03850	1.84935
958.98500	1.84983
956.93150	1.85249
954.87800	1.85584
952.82449	1.85708
950.77099	1.85701
948.71749	1.86065
946.66399	1.86698
944.61049	1.87115
942.55699	1.87302
940.50349	1.87496
938.44999	1.87636
936.39649	1.87584
934.34298	1.87611
932.28948	1.87769
930.23598	1.87951
928.18248	1.88330
926.12898	1.88753
924.07548	1.88979
922.02198	1.89206
919.96848	1.89498
917.91498	1.89655
915.86148	1.89737
913.80797	1.89940
911.75447	1.90131
909.70097	1.90175
907.64747	1.90311
905.59397	1.90533
903.54047	1.90519
901.48697	1.90346
899.43347	1.90337
897.37997	1.90562
895.32646	1.91119
893.27296	1.91863
891.21946	1.92194
889.16596	1.92087
887.11246	1.91936
885.05896	1.91881
883.00546	1.91862
880.95196	1.91838
878.89846	1.92065
876.84496	1.92692
874.79145	1.93366
872.73795	1.93540
870.68445	1.93068
868.63095	1.92387
866.57745	1.91788
864.52395	1.91193
862.47045	1.90723
860.41695	1.90577
858.36345	1.90758
856.30994	1.91225
854.25644	1.91965
852.20294	1.92820
850.14944	1.93571
848.09594	1.94019
846.04244	1.94079
843.98894	1.94227
841.93544	1.94750
839.88194	1.95111
837.82843	1.95218
835.77493	1.95582
833.72143	1.95714
831.66793	1.95345
829.61443	1.95407
827.56093	1.95776
825.50743	1.95907
823.45393	1.96131
821.40043	1.96338
819.34693	1.96242
817.29342	1.96312
815.23992	1.96609
813.18642	1.96613
811.13292	1.96598
809.07942	1.96939
807.02592	1.97445
804.97242	1.97930
802.91892	1.98051
800.86542	1.97735
798.81191	1.97503
796.75841	1.97743
794.70491	1.98300
792.65141	1.98777
790.59791	1.98992
788.54441	1.98854
786.49091	1.98712
784.43741	1.98934
782.38391	1.99356
780.33041	1.99748
778.27690	1.99837
776.22340	1.99700
774.16990	1.99484
772.11640	1.98822
770.06290	1.98033
768.00940	1.98159
765.95590	1.99001
763.90240	1.98867
761.84890	1.97786
759.79539	1.97751
757.74189	1.98511
755.68839	1.98575
753.63489	1.98243
751.58139	1.98064
749.52789	1.98329
747.47439	1.99205
745.42089	2.00063
743.36739	2.00709
741.31388	2.01323
739.26038	2.01493
737.20688	2.01260
735.15338	2.01136
733.09988	2.01499
731.04638	2.02240
728.99288	2.02716
726.93938	2.02746
724.88588	2.02890
722.83238	2.03509
720.77887	2.03880
718.72537	2.03630
716.67187	2.03707
714.61837	2.04457
712.56487	2.05358
710.51137	2.05899
708.45787	2.05749
706.40437	2.05256
704.35087	2.05185
702.29736	2.05438
700.24386	2.05729
698.19036	2.06825
696.13686	2.08542
694.08336	2.08708
692.02986	2.07121
689.97636	2.05791
687.92286	2.04985
685.86936	2.02792
683.81585	1.98813
681.76235	1.95058
679.70885	1.92913
677.65535	1.92536
675.60185	1.93323
673.54835	1.94256
671.49485	1.94588
669.44135	1.94641
667.38785	1.95533
665.33435	1.96287
663.28084	1.96211
661.22734	1.96091
659.17384	1.96045
657.12034	1.95780
655.06684	1.95184
653.01334	1.94415
650.95984	1.93819
648.90634	1.93312
646.85284	1.92987
644.79933	1.92835
642.74583	1.92860
640.69233	1.93148
638.63883	1.92712
636.58533	1.91430
634.53183	1.90170
632.47833	1.88881
630.42483	1.87981
628.37133	1.88111
626.31783	1.88402
624.26432	1.88299
622.21082	1.88646
620.15732	1.89647
618.10382	1.90728
616.05032	1.91347
613.99682	1.91439
611.94332	1.91457
609.88982	1.91500
607.83632	1.90893
605.78281	1.89424
603.72931	1.87772
601.67581	1.86397
599.62231	1.85602
597.56881	1.85615
595.51531	1.85881
593.46181	1.85892
591.40831	1.86190
589.35481	1.86817
587.30130	1.86969
585.24780	1.86961
583.19430	1.87447
581.14080	1.88066
579.08730	1.88414
577.03380	1.88391
574.98030	1.88592
572.92680	1.89300
570.87330	1.89789
568.81980	1.89683
566.76629	1.88921
564.71279	1.87926
562.65929	1.87444
560.60579	1.87182
558.55229	1.86540
556.49879	1.86043
554.44529	1.85647
552.39179	1.84364
550.33829	1.83196
548.28478	1.82986
546.23128	1.82602
544.17778	1.82335
542.12428	1.82713
540.07078	1.82457
538.01728	1.81498
535.96378	1.80838
533.91028	1.80629
531.85678	1.80395
529.80327	1.80164
527.74977	1.80391
525.69627	1.80486
523.64277	1.79854
521.58927	1.79137
519.53577	1.78971
517.48227	1.79290
515.42877	1.80082
513.37527	1.80619
511.32177	1.79998
509.26826	1.78703
507.21476	1.77514
505.16126	1.76965
503.10776	1.76330
501.05426	1.74792
499.00076	1.73167
496.94726	1.72047
494.89376	1.71516
492.84026	1.71380
490.78675	1.71143
488.73325	1.70564
486.67975	1.69913
484.62625	1.69401
482.57275	1.68831
480.51925	1.68778
478.46575	1.69552
476.41225	1.69957
474.35875	1.69697
472.30525	1.69699
470.25174	1.70038
468.19824	1.70331
466.14474	1.70617
464.09124	1.71012
462.03774	1.71064
459.98424	1.71101
457.93074	1.72318
455.87724	1.73516
453.82374	1.72467
451.77023	1.70428
449.71673	1.69632
447.66323	1.69499
445.60973	1.69049
443.55623	1.69150
441.50273	1.69052
439.44923	1.68025
437.39573	1.68332
435.34223	1.69970
433.28872	1.70171
431.23522	1.68788
429.18172	1.67996
427.12822	1.68213
425.07472	1.68687
423.02122	1.69329
420.96772	1.70067
418.91422	1.70432
416.86072	1.69702
414.80722	1.69240
412.75371	1.69989
410.70021	1.71188
408.64671	1.71399
406.59321	1.70989
404.53971	1.70809
402.48621	1.69787
400.43271	1.67029
398.37921	1.63926
