5996.22311	1.59437
5994.16961	1.60869
5992.11611	1.63198
5990.06261	1.64111
5988.00911	1.64157
5985.95561	1.63787
5983.90211	1.63399
5981.84860	1.64105
5979.79510	1.64139
5977.74160	1.62688
5975.68810	1.61831
5973.63460	1.61778
5971.58110	1.62211
5969.52760	1.63042
5967.47410	1.63600
5965.42060	1.63915
5963.36710	1.64305
5961.31359	1.64532
5959.26009	1.64425
5957.20659	1.64199
5955.15309	1.63499
5953.09959	1.62839
5951.04609	1.63069
5948.99259	1.63279
5946.93909	1.62792
5944.88559	1.62375
5942.83208	1.62654
5940.77858	1.63575
5938.72508	1.64591
5936.67158	1.64657
5934.61808	1.63679
5932.56458	1.63270
5930.51108	1.63781
5928.45758	1.64376
5926.40408	1.64716
5924.35058	1.64245
5922.29707	1.63226
5920.24357	1.62736
5918.19007	1.62638
5916.13657	1.62728
5914.08307	1.63417
5912.02957	1.64048
5909.97607	1.63139
5907.92257	1.61869
5905.86907	1.62207
5903.81556	1.63435
5901.76206	1.64346
5899.70856	1.65092
5897.65506	1.65711
5895.60156	1.66334
5893.54806	1.66499
5891.49456	1.65698
5889.44106	1.65308
5887.38756	1.65597
5885.33405	1.65409
5883.28055	1.64339
5881.22705	1.63201
5879.17355	1.63272
5877.12005	1.64507
5875.06655	1.65644
5873.01305	1.66260
5870.95955	1.66349
5868.90605	1.65229
5866.85255	1.63285
5864.79904	1.62700
5862.74554	1.63421
5860.69204	1.63670
5858.63854	1.64124
5856.58504	1.65128
5854.53154	1.65525
5852.47804	1.65914
5850.42454	1.66734
5848.37104	1.67024
5846.31753	1.66529
5844.26403	1.65896
5842.21053	1.65834
5840.15703	1.65796
5838.10353	1.65004
5836.05003	1.65250
5833.99653	1.66885
5831.94303	1.67104
5829.88953	1.65879
5827.83602	1.65514
5825.78252	1.66387
5823.72902	1.67364
5821.67552	1.67788
5819.62202	1.67822
5817.56852	1.67534
5815.51502	1.67421
5813.46152	1.67177
5811.40802	1.66282
5809.35452	1.66395
5807.30101	1.67952
5805.24751	1.69042
5803.19401	1.68219
5801.14051	1.66684
5799.08701	1.66153
5797.03351	1.66322
5794.98001	1.67395
5792.92651	1.69188
5790.87301	1.70022
5788.81950	1.69485
5786.76600	1.68621
5784.71250	1.67742
5782.65900	1.66460
5780.60550	1.65651
5778.55200	1.65488
5776.49850	1.65731
5774.44500	1.66493
5772.39150	1.66966
5770.33800	1.67019
5768.28449	1.66694
5766.23099	1.66549
5764.17749	1.66765
5762.12399	1.66464
5760.07049	1.66169
5758.01699	1.66300
5755.96349	1.66471
5753.90999	1.66462
5751.85649	1.66441
5749.80298	1.66363
5747.74948	1.66056
5745.69598	1.65922
5743.64248	1.66295
5741.58898	1.66779
5739.53548	1.66918
5737.48198	1.66602
5735.42848	1.66015
5733.37498	1.65906
5731.32147	1.66892
5729.26797	1.67687
5727.21447	1.67429
5725.16097	1.67542
5723.10747	1.67940
5721.05397	1.67110
5719.00047	1.66028
5716.94697	1.66462
5714.89347	1.67504
5712.83997	1.67752
5710.78646	1.67877
5708.73296	1.68622
5706.67946	1.69307
5704.62596	1.68527
5702.57246	1.66798
5700.51896	1.66091
5698.46546	1.66307
5696.41196	1.66310
5694.35846	1.65948
5692.30495	1.65226
5690.25145	1.64819
5688.19795	1.65168
5686.14445	1.65416
5684.09095	1.65708
5682.03745	1.66762
5679.98395	1.67794
5677.93045	1.68113
5675.87695	1.68131
5673.82345	1.67891
5671.76994	1.67503
5669.71644	1.67324
5667.66294	1.67069
5665.60944	1.66931
5663.55594	1.67225
5661.50244	1.67340
5659.44894	1.66933
5657.39544	1.66658
5655.34194	1.66656
5653.28843	1.65928
5651.23493	1.64812
5649.18143	1.64638
5647.12793	1.65064
5645.07443	1.64674
5643.02093	1.64078
5640.96743	1.65113
5638.91393	1.66680
5636.86043	1.66755
5634.80692	1.66184
5632.75342	1.66334
5630.69992	1.66980
5628.64642	1.67125
5626.59292	1.66685
5624.53942	1.66260
5622.48592	1.66001
5620.43242	1.65844
5618.37892	1.65693
5616.32542	1.65605
5614.27191	1.65697
5612.21841	1.65656
5610.16491	1.65425
5608.11141	1.64679
5606.05791	1.63526
5604.00441	1.63703
5601.95091	1.65345
5599.89741	1.66693
5597.84391	1.67090
5595.79040	1.66787
5593.73690	1.66309
5591.68340	1.66202
5589.62990	1.66234
5587.57640	1.66097
5585.52290	1.66019
5583.46940	1.66080
5581.41590	1.66203
5579.36240	1.66064
5577.30889	1.65684
5575.25539	1.65514
5573.20189	1.66050
5571.14839	1.66771
5569.09489	1.66315
5567.04139	1.65635
5564.98789	1.65732
5562.93439	1.65644
5560.88089	1.65082
5558.82739	1.64868
5556.77388	1.65356
5554.72038	1.66209
5552.66688	1.66746
5550.61338	1.66787
5548.55988	1.67037
5546.50638	1.67221
5544.45288	1.67081
5542.39938	1.67492
5540.34588	1.67699
5538.29237	1.67067
5536.23887	1.66663
5534.18537	1.65954
5532.13187	1.64838
5530.07837	1.64635
5528.02487	1.65003
5525.97137	1.65141
5523.91787	1.65445
5521.86437	1.66178
5519.81087	1.66102
5517.75736	1.64889
5515.70386	1.64289
5513.65036	1.65010
5511.59686	1.65959
5509.54336	1.65890
5507.48986	1.65450
5505.43636	1.66150
5503.38286	1.67089
5501.32936	1.66964
5499.27585	1.66486
5497.22235	1.66686
5495.16885	1.66964
5493.11535	1.66371
5491.06185	1.65850
5489.00835	1.66042
5486.95485	1.66548
5484.90135	1.67016
5482.84785	1.66801
5480.79434	1.65646
5478.74084	1.64308
5476.68734	1.64165
5474.63384	1.65769
5472.58034	1.67614
5470.52684	1.67764
5468.47334	1.66468
5466.41984	1.65449
5464.36634	1.65501
5462.31284	1.66300
5460.25933	1.67068
5458.20583	1.67093
5456.15233	1.66670
5454.09883	1.66519
5452.04533	1.66665
5449.99183	1.66556
5447.93833	1.65989
5445.88483	1.65823
5443.83133	1.66052
5441.77782	1.66097
5439.72432	1.66650
5437.67082	1.66914
5435.61732	1.65843
5433.56382	1.65179
5431.51032	1.65888
5429.45682	1.66727
5427.40332	1.66950
5425.34982	1.66749
5423.29631	1.66483
5421.24281	1.66251
5419.18931	1.65990
5417.13581	1.65732
5415.08231	1.65690
5413.02881	1.66111
5410.97531	1.66479
5408.92181	1.66907
5406.86831	1.67432
5404.81481	1.67279
5402.76130	1.66938
5400.70780	1.66360
5398.65430	1.65187
5396.60080	1.64604
5394.54730	1.64773
5392.49380	1.64856
5390.44030	1.65154
5388.38680	1.65628
5386.33330	1.65546
5384.27979	1.64776
5382.22629	1.64230
5380.17279	1.64568
5378.11929	1.65696
5376.06579	1.66756
5374.01229	1.66856
5371.95879	1.66547
5369.90529	1.66420
5367.85179	1.66647
5365.79829	1.66648
5363.74478	1.66227
5361.69128	1.66209
5359.63778	1.66367
5357.58428	1.66156
5355.53078	1.65843
5353.47728	1.65715
5351.42378	1.65403
5349.37028	1.65075
5347.31678	1.65397
5345.26327	1.65521
5343.20977	1.64930
5341.15627	1.64971
5339.10277	1.65804
5337.04927	1.66490
5334.99577	1.66629
5332.94227	1.66742
5330.88877	1.67187
5328.83527	1.67409
5326.78176	1.67438
5324.72826	1.67476
5322.67476	1.67264
5320.62126	1.67108
5318.56776	1.66893
5316.51426	1.66745
5314.46076	1.66918
5312.40726	1.66696
5310.35376	1.66448
5308.30026	1.66775
5306.24675	1.66823
5304.19325	1.66873
5302.13975	1.67494
5300.08625	1.67549
5298.03275	1.66996
5295.97925	1.67034
5293.92575	1.67461
5291.87225	1.67743
5289.81875	1.67781
5287.76524	1.67407
5285.71174	1.67509
5283.65824	1.68712
5281.60474	1.69656
5279.55124	1.69570
5277.49774	1.69334
5275.44424	1.69151
5273.39074	1.68973
5271.33724	1.69066
5269.28374	1.69106
5267.23023	1.69180
5265.17673	1.69363
5263.12323	1.69749
5261.06973	1.70735
5259.01623	1.71461
5256.96273	1.71385
5254.90923	1.71170
5252.85573	1.71134
5250.80223	1.71633
5248.74872	1.72441
5246.69522	1.72167
5244.64172	1.71390
5242.58822	1.71122
5240.53472	1.70907
5238.48122	1.70914
5236.42772	1.71505
5234.37422	1.72546
5232.32072	1.73381
5230.26721	1.73419
5228.21371	1.72647
5226.16021	1.71646
5224.10671	1.71334
5222.05321	1.71645
5219.99971	1.71718
5217.94621	1.71254
5215.89271	1.70921
5213.83921	1.71518
5211.78571	1.72998
5209.73220	1.74445
5207.67870	1.74989
5205.62520	1.74291
5203.57170	1.73253
5201.51820	1.72842
5199.46470	1.72908
5197.41120	1.73299
5195.35770	1.73921
5193.30420	1.74767
5191.25069	1.75402
5189.19719	1.74857
5187.14369	1.73947
5185.09019	1.74038
5183.03669	1.74402
5180.98319	1.74004
5178.92969	1.73536
5176.87619	1.73851
5174.82269	1.74634
5172.76918	1.74890
5170.71568	1.74637
5168.66218	1.74728
5166.60868	1.74698
5164.55518	1.74446
5162.50168	1.74688
5160.44818	1.74739
5158.39468	1.74152
5156.34118	1.73907
5154.28768	1.74569
5152.23417	1.75606
5150.18067	1.75867
5148.12717	1.75075
5146.07367	1.74661
5144.02017	1.75049
5141.96667	1.75386
5139.91317	1.75592
5137.85967	1.75593
5135.80617	1.74957
5133.75266	1.74263
5131.69916	1.74648
5129.64566	1.75706
5127.59216	1.76229
5125.53866	1.76332
5123.48516	1.76039
5121.43166	1.75343
5119.37816	1.75050
5117.32466	1.75068
5115.27116	1.74551
5113.21765	1.73770
5111.16415	1.73536
5109.11065	1.73975
5107.05715	1.74493
5105.00365	1.74679
5102.95015	1.74574
5100.89665	1.74320
5098.84315	1.74403
5096.78965	1.74784
5094.73614	1.74620
5092.68264	1.74378
5090.62914	1.74645
5088.57564	1.74333
5086.52214	1.73338
5084.46864	1.73177
5082.41514	1.74325
5080.36164	1.75474
5078.30814	1.75480
5076.25463	1.74878
5074.20113	1.74705
5072.14763	1.75082
5070.09413	1.75125
5068.04063	1.74446
5065.98713	1.74190
5063.93363	1.74843
5061.88013	1.75093
5059.82663	1.74304
5057.77313	1.73619
5055.71962	1.73815
5053.66612	1.74377
5051.61262	1.74520
5049.55912	1.74348
5047.50562	1.74455
5045.45212	1.74518
5043.39862	1.74118
5041.34512	1.73807
5039.29162	1.73814
5037.23811	1.73707
5035.18461	1.73568
5033.13111	1.73823
5031.07761	1.74350
5029.02411	1.74616
5026.97061	1.74391
5024.91711	1.74015
5022.86361	1.73956
5020.81011	1.74180
5018.75661	1.74288
5016.70310	1.74204
5014.64960	1.73971
5012.59610	1.73681
5010.54260	1.73567
5008.48910	1.73335
5006.43560	1.73047
5004.38210	1.73275
5002.32860	1.73607
5000.27510	1.73341
4998.22159	1.72878
4996.16809	1.72586
4994.11459	1.72603
4992.06109	1.73311
4990.00759	1.74129
4987.95409	1.74670
4985.90059	1.75068
4983.84709	1.75186
4981.79359	1.74697
4979.74008	1.73726
4977.68658	1.73436
4975.63308	1.73918
4973.57958	1.74030
4971.52608	1.73971
4969.47258	1.74454
4967.41908	1.74673
4965.36558	1.74049
4963.31208	1.73505
4961.25858	1.73562
4959.20507	1.73593
4957.15157	1.73258
4955.09807	1.73272
4953.04457	1.73382
4950.99107	1.72879
4948.93757	1.72508
4946.88407	1.72819
4944.83057	1.73393
4942.77707	1.73768
4940.72356	1.73659
4938.67006	1.73640
4936.61656	1.74067
4934.56306	1.74107
4932.50956	1.73657
4930.45606	1.73423
4928.40256	1.73704
4926.34906	1.74252
4924.29556	1.74252
4922.24205	1.73458
4920.18855	1.72732
4918.13505	1.72451
4916.08155	1.72309
4914.02805	1.72327
4911.97455	1.72390
4909.92105	1.72539
4907.86755	1.73016
4905.81405	1.73320
4903.76055	1.73364
4901.70704	1.73642
4899.65354	1.74043
4897.60004	1.74216
4895.54654	1.74251
4893.49304	1.74134
4891.43954	1.73681
4889.38604	1.73499
4887.33254	1.73767
4885.27904	1.73829
4883.22553	1.73687
4881.17203	1.73789
4879.11853	1.74339
4877.06503	1.74906
4875.01153	1.74892
4872.95803	1.74566
4870.90453	1.74469
4868.85103	1.74410
4866.79753	1.74074
4864.74403	1.73603
4862.69052	1.73340
4860.63702	1.73617
4858.58352	1.73957
4856.53002	1.74038
4854.47652	1.74163
4852.42302	1.74126
4850.36952	1.73865
4848.31602	1.73654
4846.26252	1.73681
4844.20901	1.74024
4842.15551	1.74664
4840.10201	1.75463
4838.04851	1.75863
4835.99501	1.75296
4833.94151	1.74301
4831.88801	1.73842
4829.83451	1.74088
4827.78101	1.74890
4825.72750	1.75825
4823.67400	1.76102
4821.62050	1.75424
4819.56700	1.74594
4817.51350	1.74404
4815.46000	1.74657
4813.40650	1.74955
4811.35300	1.75254
4809.29950	1.75616
4807.24600	1.75762
4805.19249	1.75366
4803.13899	1.74654
4801.08549	1.74203
4799.03199	1.74445
4796.97849	1.75184
4794.92499	1.75489
4792.87149	1.75229
4790.81799	1.75121
4788.76449	1.75069
4786.71098	1.75194
4784.65748	1.75758
4782.60398	1.76185
4780.55048	1.76142
4778.49698	1.75677
4776.44348	1.75125
4774.38998	1.75181
4772.33648	1.75683
4770.28298	1.75761
4768.22947	1.75167
4766.17597	1.74689
4764.12247	1.74782
4762.06897	1.75042
4760.01547	1.75543
4757.96197	1.76071
4755.90847	1.76056
4753.85497	1.75894
4751.80147	1.76053
4749.74797	1.76285
4747.69446	1.76030
4745.64096	1.75470
4743.58746	1.75228
4741.53396	1.75186
4739.48046	1.75092
4737.42696	1.75004
4735.37346	1.74786
4733.31996	1.74770
4731.26646	1.75469
4729.21295	1.76273
4727.15945	1.76265
4725.10595	1.75677
4723.05245	1.75324
4720.99895	1.75587
4718.94545	1.75967
4716.89195	1.75840
4714.83845	1.75820
4712.78495	1.76247
4710.73145	1.76325
4708.67794	1.75910
4706.62444	1.75585
4704.57094	1.75811
4702.51744	1.76220
4700.46394	1.75986
4698.41044	1.75506
4696.35694	1.75234
4694.30344	1.74956
4692.24994	1.74907
4690.19643	1.75095
4688.14293	1.75473
4686.08943	1.76054
4684.03593	1.76314
4681.98243	1.75933
4679.92893	1.75394
4677.87543	1.75344
4675.82193	1.75792
4673.76843	1.75927
4671.71492	1.75400
4669.66142	1.74749
4667.60792	1.74411
4665.55442	1.74573
4663.50092	1.74948
4661.44742	1.75199
4659.39392	1.75175
4657.34042	1.74980
4655.28692	1.75020
4653.23342	1.75201
4651.17991	1.75463
4649.12641	1.75534
4647.07291	1.75034
4645.01941	1.74554
4642.96591	1.74656
4640.91241	1.74815
4638.85891	1.74589
4636.80541	1.74605
4634.75191	1.75008
4632.69840	1.75347
4630.64490	1.75740
4628.59140	1.75914
4626.53790	1.75650
4624.48440	1.75338
4622.43090	1.75052
4620.37740	1.74843
4618.32390	1.74769
4616.27040	1.74568
4614.21690	1.74407
4612.16339	1.74922
4610.10989	1.75558
4608.05639	1.75435
4606.00289	1.74943
4603.94939	1.74494
4601.89589	1.74267
4599.84239	1.74550
4597.78889	1.75073
4595.73539	1.75196
4593.68188	1.75027
4591.62838	1.75194
4589.57488	1.75549
4587.52138	1.75516
4585.46788	1.75270
4583.41438	1.75089
4581.36088	1.74937
4579.30738	1.74879
4577.25388	1.74838
4575.20037	1.74767
4573.14687	1.74555
4571.09337	1.74265
4569.03987	1.74294
4566.98637	1.74585
4564.93287	1.74811
4562.87937	1.74927
4560.82587	1.75128
4558.77237	1.75406
4556.71887	1.75296
4554.66536	1.74753
4552.61186	1.74287
4550.55836	1.74139
4548.50486	1.74356
4546.45136	1.74709
4544.39786	1.74952
4542.34436	1.75281
4540.29086	1.75415
4538.23736	1.74976
4536.18385	1.74737
4534.13035	1.75195
4532.07685	1.75594
4530.02335	1.75482
4527.96985	1.75278
4525.91635	1.75304
4523.86285	1.75405
4521.80935	1.75303
4519.75585	1.74969
4517.70234	1.74703
4515.64884	1.74675
4513.59534	1.74771
4511.54184	1.74928
4509.48834	1.75094
4507.43484	1.75265
4505.38134	1.75453
4503.32784	1.75536
4501.27434	1.75380
4499.22084	1.75147
4497.16733	1.75052
4495.11383	1.74999
4493.06033	1.74962
4491.00683	1.75108
4488.95333	1.75375
4486.89983	1.75615
4484.84633	1.75951
4482.79283	1.76472
4480.73933	1.76897
4478.68582	1.76994
4476.63232	1.76811
4474.57882	1.76546
4472.52532	1.76503
4470.47182	1.76509
4468.41832	1.76487
4466.36482	1.76810
4464.31132	1.77236
4462.25782	1.77266
4460.20432	1.77019
4458.15081	1.76931
4456.09731	1.77084
4454.04381	1.77396
4451.99031	1.77742
4449.93681	1.78121
4447.88331	1.78585
4445.82981	1.78698
4443.77631	1.78495
4441.72281	1.78585
4439.66930	1.79151
4437.61580	1.79670
4435.56230	1.79680
4433.50880	1.79360
4431.45530	1.79313
4429.40180	1.79949
4427.34830	1.80610
4425.29480	1.80575
4423.24130	1.80381
4421.18779	1.80613
4419.13429	1.80854
4417.08079	1.80895
4415.02729	1.80977
4412.97379	1.81131
4410.92029	1.81578
4408.86679	1.81983
4406.81329	1.81957
4404.75979	1.82156
4402.70629	1.82709
4400.65278	1.82801
4398.59928	1.82374
4396.54578	1.82385
4394.49228	1.82919
4392.43878	1.83063
4390.38528	1.82928
4388.33178	1.83052
4386.27828	1.83292
4384.22478	1.83442
4382.17127	1.83452
4380.11777	1.83589
4378.06427	1.83981
4376.01077	1.84324
4373.95727	1.84494
4371.90377	1.84485
4369.85027	1.84506
4367.79677	1.84688
4365.74327	1.84764
4363.68976	1.84998
4361.63626	1.85609
4359.58276	1.86010
4357.52926	1.85905
4355.47576	1.85824
4353.42226	1.86214
4351.36876	1.86805
4349.31526	1.86988
4347.26176	1.86561
4345.20826	1.86409
4343.15475	1.87199
4341.10125	1.87907
4339.04775	1.87899
4336.99425	1.87841
4334.94075	1.87954
4332.88725	1.87976
4330.83375	1.88021
4328.78025	1.88170
4326.72675	1.88184
4324.67324	1.88288
4322.61974	1.88417
4320.56624	1.88050
4318.51274	1.87539
4316.45924	1.87139
4314.40574	1.86910
4312.35224	1.87204
4310.29874	1.87463
4308.24524	1.87268
4306.19174	1.86970
4304.13823	1.86688
4302.08473	1.86383
4300.03123	1.85999
4297.97773	1.85898
4295.92423	1.86279
4293.87073	1.86505
4291.81723	1.86296
4289.76373	1.86148
4287.71023	1.86272
4285.65672	1.86384
4283.60322	1.86533
4281.54972	1.86833
4279.49622	1.87084
4277.44272	1.87128
4275.38922	1.87088
4273.33572	1.87069
4271.28222	1.86850
4269.22872	1.86454
4267.17521	1.86279
4265.12171	1.86402
4263.06821	1.86481
4261.01471	1.86648
4258.96121	1.87070
4256.90771	1.87115
4254.85421	1.86927
4252.80071	1.87000
4250.74721	1.86893
4248.69371	1.86637
4246.64020	1.86538
4244.58670	1.86419
4242.53320	1.86329
4240.47970	1.86476
4238.42620	1.86569
4236.37270	1.86201
4234.31920	1.85897
4232.26570	1.86099
4230.21220	1.86397
4228.15869	1.86414
4226.10519	1.86232
4224.05169	1.86120
4221.99819	1.86083
4219.94469	1.86192
4217.89119	1.86575
4215.83769	1.86817
4213.78419	1.86698
4211.73069	1.86486
4209.67719	1.86439
4207.62368	1.86659
4205.57018	1.86840
4203.51668	1.86750
4201.46318	1.86684
4199.40968	1.86768
4197.35618	1.86617
4195.30268	1.86228
4193.24918	1.86154
4191.19568	1.86401
4189.14217	1.86493
4187.08867	1.86489
4185.03517	1.86400
4182.98167	1.86162
4180.92817	1.86276
4178.87467	1.86738
4176.82117	1.86978
4174.76767	1.86771
4172.71417	1.86481
4170.66066	1.86463
4168.60716	1.86439
4166.55366	1.86193
4164.50016	1.85971
4162.44666	1.86038
4160.39316	1.86350
4158.33966	1.86648
4156.28616	1.86837
4154.23266	1.86939
4152.17916	1.86805
4150.12565	1.86384
4148.07215	1.86077
4146.01865	1.86301
4143.96515	1.86888
4141.91165	1.87344
4139.85815	1.87448
4137.80465	1.87374
4135.75115	1.87200
4133.69765	1.86781
4131.64414	1.86514
4129.59064	1.86703
4127.53714	1.86819
4125.48364	1.86819
4123.43014	1.87164
4121.37664	1.87744
4119.32314	1.88187
4117.26964	1.88278
4115.21614	1.88171
4113.16263	1.88198
4111.10913	1.88163
4109.05563	1.87849
4107.00213	1.87531
4104.94863	1.87244
4102.89513	1.86922
4100.84163	1.86811
4098.78813	1.86997
4096.73463	1.87261
4094.68113	1.87242
4092.62762	1.87086
4090.57412	1.87146
4088.52062	1.87445
4086.46712	1.87913
4084.41362	1.88211
4082.36012	1.88058
4080.30662	1.87636
4078.25312	1.87257
4076.19962	1.87047
4074.14611	1.87048
4072.09261	1.87268
4070.03911	1.87536
4067.98561	1.87700
4065.93211	1.87798
4063.87861	1.87857
4061.82511	1.87864
4059.77161	1.87932
4057.71811	1.88001
4055.66461	1.87964
4053.61110	1.87792
4051.55760	1.87385
4049.50410	1.87288
4047.45060	1.87753
4045.39710	1.88058
4043.34360	1.87833
4041.29010	1.87442
4039.23660	1.87442
4037.18310	1.87883
4035.12959	1.88353
4033.07609	1.88606
4031.02259	1.88747
4028.96909	1.88826
4026.91559	1.88621
4024.86209	1.88246
4022.80859	1.88215
4020.75509	1.88663
4018.70159	1.89020
4016.64808	1.89103
4014.59458	1.89195
4012.54108	1.89111
4010.48758	1.88707
4008.43408	1.88117
4006.38058	1.87958
4004.32708	1.88350
4002.27358	1.88551
4000.22008	1.88489
3998.16658	1.88511
3996.11307	1.88521
3994.05957	1.88271
3992.00607	1.88046
3989.95257	1.88163
3987.89907	1.88244
3985.84557	1.88231
3983.79207	1.88324
3981.73857	1.88267
3979.68507	1.88179
3977.63156	1.88329
3975.57806	1.88301
3973.52456	1.87935
3971.47106	1.87672
3969.41756	1.87789
3967.36406	1.87929
3965.31056	1.87775
3963.25706	1.87780
3961.20356	1.87952
3959.15006	1.87804
3957.09655	1.87639
3955.04305	1.87850
3952.98955	1.87962
3950.93605	1.87650
3948.88255	1.87509
3946.82905	1.87754
3944.77555	1.87983
3942.72205	1.87981
3940.66855	1.87849
3938.61504	1.87808
3936.56154	1.87738
3934.50804	1.87457
3932.45454	1.87139
3930.40104	1.87195
3928.34754	1.87549
3926.29404	1.87791
3924.24054	1.87806
3922.18704	1.87623
3920.13353	1.87327
3918.08003	1.87301
3916.02653	1.87775
3913.97303	1.88287
3911.91953	1.88467
3909.86603	1.88318
3907.81253	1.88043
3905.75903	1.87698
3903.70553	1.87282
3901.65203	1.87161
3899.59852	1.87253
3897.54502	1.87208
3895.49152	1.87112
3893.43802	1.87057
3891.38452	1.87073
3889.33102	1.87057
3887.27752	1.86860
3885.22402	1.86728
3883.17052	1.86979
3881.11701	1.87165
3879.06351	1.87180
3877.01001	1.87148
3874.95651	1.86912
3872.90301	1.86977
3870.84951	1.87165
3868.79601	1.86807
3866.74251	1.86583
3864.68901	1.86586
3862.63550	1.86593
3860.58200	1.86813
3858.52850	1.87081
3856.47500	1.86948
3854.42150	1.86570
3852.36800	1.86644
3850.31450	1.86974
3848.26100	1.87144
3846.20750	1.87036
3844.15400	1.86794
3842.10049	1.86791
3840.04699	1.86974
3837.99349	1.87086
3835.93999	1.87198
3833.88649	1.87344
3831.83299	1.87354
3829.77949	1.87297
3827.72599	1.87337
3825.67249	1.87395
3823.61898	1.87507
3821.56548	1.87731
3819.51198	1.88090
3817.45848	1.88548
3815.40498	1.88468
3813.35148	1.87919
3811.29798	1.87691
3809.24448	1.87740
3807.19098	1.87840
3805.13748	1.87849
3803.08397	1.87667
3801.03047	1.87527
3798.97697	1.87486
3796.92347	1.87242
3794.86997	1.87125
3792.81647	1.87368
3790.76297	1.87775
3788.70947	1.88102
3786.65597	1.88257
3784.60246	1.88463
3782.54896	1.88627
3780.49546	1.88522
3778.44196	1.88338
3776.38846	1.88353
3774.33496	1.88442
3772.28146	1.88472
3770.22796	1.88498
3768.17446	1.88588
3766.12095	1.88836
3764.06745	1.89109
3762.01395	1.89159
3759.96045	1.88943
3757.90695	1.88652
3755.85345	1.88727
3753.79995	1.89143
3751.74645	1.89467
3749.69295	1.89534
3747.63945	1.89321
3745.58594	1.88887
3743.53244	1.88730
3741.47894	1.89072
3739.42544	1.89518
3737.37194	1.89902
3735.31844	1.90221
3733.26494	1.90523
3731.21144	1.90726
3729.15794	1.90933
3727.10443	1.91239
3725.05093	1.91003
3722.99743	1.90193
3720.94393	1.90105
3718.89043	1.90847
3716.83693	1.91435
3714.78343	1.91506
3712.72993	1.91564
3710.67643	1.92123
3708.62292	1.92719
3706.56942	1.93332
3704.51592	1.93900
3702.46242	1.93868
3700.40892	1.93660
3698.35542	1.93960
3696.30192	1.94364
3694.24842	1.94804
3692.19492	1.95610
3690.14142	1.96395
3688.08791	1.96310
3686.03441	1.96026
3683.98091	1.96103
3681.92741	1.96430
3679.87391	1.96995
3677.82041	1.97418
3675.76691	1.97470
3673.71341	1.97609
3671.65991	1.98012
3669.60640	1.98586
3667.55290	1.99025
3665.49940	1.99178
3663.44590	1.99265
3661.39240	1.99551
3659.33890	2.00156
3657.28540	2.00756
3655.23190	2.00824
3653.17840	2.00839
3651.12490	2.01328
3649.07139	2.01920
3647.01789	2.02073
3644.96439	2.02290
3642.91089	2.02776
3640.85739	2.03272
3638.80389	2.03498
3636.75039	2.03384
3634.69689	2.03462
3632.64339	2.03913
3630.58988	2.04067
3628.53638	2.03847
3626.48288	2.04043
3624.42938	2.04570
3622.37588	2.04870
3620.32238	2.05059
3618.26888	2.05429
3616.21538	2.05154
3614.16188	2.04682
3612.10837	2.05169
3610.05487	2.06029
3608.00137	2.06665
3605.94787	2.06992
3603.89437	2.06658
3601.84087	2.06100
3599.78737	2.05873
3597.73387	2.05536
3595.68037	2.05103
3593.62687	2.05308
3591.57336	2.05832
3589.51986	2.06416
3587.46636	2.07487
3585.41286	2.07970
3583.35936	2.07262
3581.30586	2.06731
3579.25236	2.07071
3577.19886	2.07423
3575.14536	2.07107
3573.09185	2.06875
3571.03835	2.07213
3568.98485	2.07579
3566.93135	2.07622
3564.87785	2.07916
3562.82435	2.08536
3560.77085	2.08596
3558.71735	2.08044
3556.66385	2.07655
3554.61035	2.07553
3552.55684	2.07664
3550.50334	2.07712
3548.44984	2.07547
3546.39634	2.07777
3544.34284	2.08306
3542.28934	2.08559
3540.23584	2.08560
3538.18234	2.08235
3536.12884	2.07903
3534.07533	2.08040
3532.02183	2.08321
3529.96833	2.08415
3527.91483	2.08142
3525.86133	2.07453
3523.80783	2.06972
3521.75433	2.07120
3519.70083	2.07664
3517.64733	2.08033
3515.59382	2.07951
3513.54032	2.07849
3511.48682	2.07974
3509.43332	2.07957
3507.37982	2.07702
3505.32632	2.07467
3503.27282	2.07252
3501.21932	2.07269
3499.16582	2.07870
3497.11232	2.08647
3495.05881	2.08819
3493.00531	2.08354
3490.95181	2.07650
3488.89831	2.07203
3486.84481	2.07299
3484.79131	2.07450
3482.73781	2.07439
3480.68431	2.07602
3478.63081	2.07993
3476.57730	2.08007
3474.52380	2.07481
3472.47030	2.07381
3470.41680	2.07963
3468.36330	2.08317
3466.30980	2.08375
3464.25630	2.08662
3462.20280	2.08980
3460.14930	2.09016
3458.09579	2.08689
3456.04229	2.08253
3453.98879	2.08219
3451.93529	2.08496
3449.88179	2.08677
3447.82829	2.08715
3445.77479	2.08594
3443.72129	2.08361
3441.66779	2.08286
3439.61429	2.08299
3437.56078	2.08106
3435.50728	2.07872
3433.45378	2.08038
3431.40028	2.08466
3429.34678	2.08612
3427.29328	2.08359
3425.23978	2.08005
3423.18628	2.08035
3421.13278	2.08299
3419.07927	2.08276
3417.02577	2.08408
3414.97227	2.09010
3412.91877	2.09156
3410.86527	2.08473
3408.81177	2.07926
3406.75827	2.07806
3404.70477	2.07750
3402.65127	2.07981
3400.59777	2.08160
3398.54426	2.07853
3396.49076	2.07695
3394.43726	2.07916
3392.38376	2.07961
3390.33026	2.07849
3388.27676	2.08051
3386.22326	2.08497
3384.16976	2.08810
3382.11626	2.08779
3380.06275	2.08555
3378.00925	2.08426
3375.95575	2.08246
3373.90225	2.07948
3371.84875	2.07742
3369.79525	2.07848
3367.74175	2.08278
3365.68825	2.08580
3363.63475	2.08484
3361.58124	2.08269
3359.52774	2.08012
3357.47424	2.07702
3355.42074	2.07703
3353.36724	2.08086
3351.31374	2.08347
3349.26024	2.08236
3347.20674	2.07983
3345.15324	2.07927
3343.09974	2.08252
3341.04623	2.08626
3338.99273	2.08594
3336.93923	2.08296
3334.88573	2.08052
3332.83223	2.08129
3330.77873	2.08591
3328.72523	2.08853
3326.67173	2.08675
3324.61823	2.08561
3322.56472	2.08443
3320.51122	2.08047
3318.45772	2.07765
3316.40422	2.08049
3314.35072	2.08708
3312.29722	2.09100
3310.24372	2.08951
3308.19022	2.08667
3306.13672	2.08858
3304.08321	2.09389
3302.02971	2.09264
3299.97621	2.08425
3297.92271	2.08061
3295.86921	2.08414
3293.81571	2.08631
3291.76221	2.08498
3289.70871	2.08327
3287.65521	2.08355
3285.60171	2.08623
3283.54820	2.08703
3281.49470	2.08550
3279.44120	2.08356
3277.38770	2.08055
3275.33420	2.07877
3273.28070	2.08035
3271.22720	2.08239
3269.17370	2.08282
3267.12020	2.08471
3265.06669	2.08742
3263.01319	2.08644
3260.95969	2.08302
3258.90619	2.08253
3256.85269	2.08660
3254.79919	2.09075
3252.74569	2.09108
3250.69219	2.08770
3248.63869	2.08649
3246.58519	2.09105
3244.53168	2.09520
3242.47818	2.09593
3240.42468	2.09452
3238.37118	2.09159
3236.31768	2.08945
3234.26418	2.08751
3232.21068	2.08632
3230.15718	2.08795
3228.10368	2.08978
3226.05017	2.09211
3223.99667	2.09381
3221.94317	2.09090
3219.88967	2.08795
3217.83617	2.08728
3215.78267	2.08668
3213.72917	2.08647
3211.67567	2.08495
3209.62217	2.08156
3207.56866	2.08012
3205.51516	2.08387
3203.46166	2.08991
3201.40816	2.09070
3199.35466	2.08738
3197.30116	2.08877
3195.24766	2.09193
3193.19416	2.09120
3191.14066	2.09114
3189.08716	2.09030
3187.03365	2.08661
3184.98015	2.08649
3182.92665	2.08908
3180.87315	2.08856
3178.81965	2.08928
3176.76615	2.09334
3174.71265	2.09162
3172.65915	2.08646
3170.60565	2.08645
3168.55214	2.08764
3166.49864	2.08762
3164.44514	2.08908
3162.39164	2.09168
3160.33814	2.09234
3158.28464	2.08768
3156.23114	2.08097
3154.17764	2.07838
3152.12414	2.08020
3150.07064	2.08330
3148.01713	2.08453
3145.96363	2.08363
3143.91013	2.08331
3141.85663	2.08497
3139.80313	2.08844
3137.74963	2.09154
3135.69613	2.09202
3133.64263	2.09110
3131.58913	2.08880
3129.53562	2.08426
3127.48212	2.08205
3125.42862	2.08599
3123.37512	2.09044
3121.32162	2.09061
3119.26812	2.08942
3117.21462	2.08921
3115.16112	2.08810
3113.10762	2.08679
3111.05411	2.08959
3109.00061	2.09520
3106.94711	2.09609
3104.89361	2.09242
3102.84011	2.09190
3100.78661	2.09419
3098.73311	2.09433
3096.67961	2.09233
3094.62611	2.09336
3092.57261	2.09680
3090.51910	2.09608
3088.46560	2.09540
3086.41210	2.09988
3084.35860	2.10311
3082.30510	2.09970
3080.25160	2.09346
3078.19810	2.09100
3076.14460	2.09384
3074.09110	2.09772
3072.03759	2.10082
3069.98409	2.10437
3067.93059	2.10455
3065.87709	2.10019
3063.82359	2.09658
3061.77009	2.09538
3059.71659	2.09335
3057.66309	2.09170
3055.60959	2.09457
3053.55608	2.09934
3051.50258	2.10249
3049.44908	2.10360
3047.39558	2.10252
3045.34208	2.10196
3043.28858	2.10467
3041.23508	2.10831
3039.18158	2.10841
3037.12808	2.10795
3035.07458	2.11102
3033.02107	2.11284
3030.96757	2.11180
3028.91407	2.11091
3026.86057	2.11124
3024.80707	2.11614
3022.75357	2.12242
3020.70007	2.12232
3018.64657	2.11959
3016.59307	2.11968
3014.53956	2.12107
3012.48606	2.12307
3010.43256	2.12478
3008.37906	2.12538
3006.32556	2.12737
3004.27206	2.13036
3002.21856	2.13187
3000.16506	2.13290
2998.11156	2.13416
2996.05806	2.13176
2994.00455	2.12346
2991.95105	2.11626
2989.89755	2.11578
2987.84405	2.11786
2985.79055	2.11548
2983.73705	2.10934
2981.68355	2.10426
2979.63005	2.10024
2977.57655	2.09727
2975.52304	2.09609
2973.46954	2.09536
2971.41604	2.09539
2969.36254	2.09813
2967.30904	2.09973
2965.25554	2.09705
2963.20204	2.09509
2961.14854	2.09320
2959.09504	2.09021
2957.04153	2.08878
2954.98803	2.08740
2952.93453	2.08587
2950.88103	2.08449
2948.82753	2.08304
2946.77403	2.08177
2944.72053	2.07976
2942.66703	2.07825
2940.61353	2.07836
2938.56003	2.07780
2936.50652	2.07704
2934.45302	2.07842
2932.39952	2.07934
2930.34602	2.07648
2928.29252	2.07128
2926.23902	2.06694
2924.18552	2.06287
2922.13202	2.05685
2920.07852	2.05093
2918.02501	2.04800
2915.97151	2.04881
2913.91801	2.05309
2911.86451	2.05857
2909.81101	2.06269
2907.75751	2.06419
2905.70401	2.06460
2903.65051	2.06471
2901.59701	2.06296
2899.54351	2.06067
2897.49000	2.05933
2895.43650	2.06074
2893.38300	2.06484
2891.32950	2.06858
2889.27600	2.07182
2887.22250	2.07503
2885.16900	2.07653
2883.11550	2.07577
2881.06200	2.07453
2879.00849	2.07335
2876.95499	2.07180
2874.90149	2.06977
2872.84799	2.06987
2870.79449	2.07150
2868.74099	2.07074
2866.68749	2.07112
2864.63399	2.07309
2862.58049	2.07114
2860.52698	2.06643
2858.47348	2.06358
2856.41998	2.06356
2854.36648	2.06480
2852.31298	2.06402
2850.25948	2.05916
2848.20598	2.05457
2846.15248	2.05641
2844.09898	2.06221
2842.04548	2.06433
2839.99197	2.06322
2837.93847	2.06386
2835.88497	2.06560
2833.83147	2.06632
2831.77797	2.06816
2829.72447	2.06987
2827.67097	2.06667
2825.61747	2.06120
2823.56397	2.05928
2821.51046	2.06175
2819.45696	2.06495
2817.40346	2.06623
2815.34996	2.06787
2813.29646	2.07182
2811.24296	2.07487
2809.18946	2.07317
2807.13596	2.06976
2805.08246	2.07106
2803.02895	2.07389
2800.97545	2.07143
2798.92195	2.06789
2796.86845	2.06855
2794.81495	2.07060
2792.76145	2.07012
2790.70795	2.06844
2788.65445	2.06761
2786.60095	2.06772
2784.54745	2.06991
2782.49394	2.07138
2780.44044	2.06890
2778.38694	2.06595
2776.33344	2.06614
2774.27994	2.06914
2772.22644	2.07182
2770.17294	2.07066
2768.11944	2.06821
2766.06594	2.06910
2764.01243	2.06996
2761.95893	2.06893
2759.90543	2.06952
2757.85193	2.07093
2755.79843	2.07188
2753.74493	2.07173
2751.69143	2.06988
2749.63793	2.06672
2747.58443	2.06401
2745.53093	2.06626
2743.47742	2.07043
2741.42392	2.06966
2739.37042	2.06745
2737.31692	2.06910
2735.26342	2.07143
2733.20992	2.06984
2731.15642	2.06808
2729.10292	2.07063
2727.04942	2.07295
2724.99591	2.07168
2722.94241	2.06986
2720.88891	2.06876
2718.83541	2.06819
2716.78191	2.06757
2714.72841	2.06677
2712.67491	2.06686
2710.62141	2.06796
2708.56791	2.07053
2706.51440	2.07361
2704.46090	2.07436
2702.40740	2.07219
2700.35390	2.06968
2698.30040	2.07084
2696.24690	2.07562
2694.19340	2.07826
2692.13990	2.07602
2690.08640	2.07131
2688.03290	2.06723
2685.97939	2.06591
2683.92589	2.06629
2681.87239	2.06734
2679.81889	2.06856
2677.76539	2.06892
2675.71189	2.06991
2673.65839	2.07054
2671.60489	2.07021
2669.55139	2.07206
2667.49788	2.07417
2665.44438	2.07430
2663.39088	2.07399
2661.33738	2.07307
2659.28388	2.07105
2657.23038	2.06871
2655.17688	2.06816
2653.12338	2.07095
2651.06988	2.07371
2649.01637	2.07236
2646.96287	2.06878
2644.90937	2.06616
2642.85587	2.06629
2640.80237	2.06983
2638.74887	2.07231
2636.69537	2.07066
2634.64187	2.06822
2632.58837	2.06864
2630.53487	2.07072
2628.48136	2.07001
2626.42786	2.06660
2624.37436	2.06525
2622.32086	2.06799
2620.26736	2.07194
2618.21386	2.07427
2616.16036	2.07373
2614.10686	2.07122
2612.05336	2.07111
2609.99985	2.07418
2607.94635	2.07540
2605.89285	2.07184
2603.83935	2.06779
2601.78585	2.06562
2599.73235	2.06376
2597.67885	2.06445
2595.62535	2.06772
2593.57185	2.06922
2591.51835	2.06818
2589.46484	2.06726
2587.41134	2.06697
2585.35784	2.06667
2583.30434	2.06816
2581.25084	2.07113
2579.19734	2.07280
2577.14384	2.07214
2575.09034	2.06972
2573.03684	2.06738
2570.98333	2.06648
2568.92983	2.06775
2566.87633	2.07131
2564.82283	2.07504
2562.76933	2.07649
2560.71583	2.07400
2558.66233	2.07003
2556.60883	2.06937
2554.55533	2.07148
2552.50182	2.07262
2550.44832	2.07222
2548.39482	2.07222
2546.34132	2.07215
2544.28782	2.07148
2542.23432	2.07169
2540.18082	2.07161
2538.12732	2.07023
2536.07382	2.06969
2534.02032	2.07041
2531.96681	2.07066
2529.91331	2.06896
2527.85981	2.06741
2525.80631	2.06878
2523.75281	2.07079
2521.69931	2.07165
2519.64581	2.07117
2517.59231	2.06945
2515.53881	2.06996
2513.48530	2.07277
2511.43180	2.07308
2509.37830	2.07146
2507.32480	2.07175
2505.27130	2.07307
2503.21780	2.07450
2501.16430	2.07658
2499.11080	2.07699
2497.05730	2.07408
2495.00380	2.06990
2492.95029	2.06891
2490.89679	2.07278
2488.84329	2.07747
2486.78979	2.08010
2484.73629	2.08002
2482.68279	2.07634
2480.62929	2.07231
2478.57579	2.07293
2476.52229	2.07823
2474.46878	2.08268
2472.41528	2.08236
2470.36178	2.07909
2468.30828	2.07655
2466.25478	2.07581
2464.20128	2.07405
2462.14778	2.07212
2460.09428	2.07310
2458.04078	2.07446
2455.98727	2.07402
2453.93377	2.07362
2451.88027	2.07396
2449.82677	2.07281
2447.77327	2.07129
2445.71977	2.07307
2443.66627	2.07645
2441.61277	2.07730
2439.55927	2.07540
2437.50577	2.07386
2435.45226	2.07541
2433.39876	2.07879
2431.34526	2.08040
2429.29176	2.08013
2427.23826	2.08039
2425.18476	2.08125
2423.13126	2.08153
2421.07776	2.07954
2419.02426	2.07619
2416.97075	2.07552
2414.91725	2.07738
2412.86375	2.07973
2410.81025	2.08100
2408.75675	2.08020
2406.70325	2.07911
2404.64975	2.07801
2402.59625	2.07678
2400.54275	2.07635
2398.48924	2.07638
2396.43574	2.07602
2394.38224	2.07474
2392.32874	2.07340
2390.27524	2.07312
2388.22174	2.07425
2386.16824	2.07640
2384.11474	2.07805
2382.06124	2.07895
2380.00774	2.07928
2377.95423	2.07738
2375.90073	2.07406
2373.84723	2.07243
2371.79373	2.07515
2369.74023	2.08277
2367.68673	2.09009
2365.63323	2.09024
2363.57973	2.08249
2361.52623	2.07618
2359.47272	2.07673
2357.41922	2.07572
2355.36572	2.07201
2353.31222	2.06975
2351.25872	2.06809
2349.20522	2.06911
2347.15172	2.07247
2345.09822	2.07597
2343.04472	2.07679
2340.99122	2.07349
2338.93771	2.07092
2336.88421	2.06969
2334.83071	2.06519
2332.77721	2.06057
2330.72371	2.06409
2328.67021	2.07010
2326.61671	2.07101
2324.56321	2.07336
2322.50971	2.07841
2320.45620	2.07640
2318.40270	2.06800
2316.34920	2.06485
2314.29570	2.06818
2312.24220	2.07191
2310.18870	2.07286
2308.13520	2.07275
2306.08170	2.07494
2304.02820	2.07542
2301.97469	2.07259
2299.92119	2.07187
2297.86769	2.07424
2295.81419	2.07530
2293.76069	2.07279
2291.70719	2.06965
2289.65369	2.06776
2287.60019	2.06692
2285.54669	2.06768
2283.49319	2.06927
2281.43968	2.07018
2279.38618	2.06998
2277.33268	2.07053
2275.27918	2.07176
2273.22568	2.07044
2271.17218	2.06880
2269.11868	2.07082
2267.06518	2.07450
2265.01168	2.07426
2262.95817	2.06943
2260.90467	2.06692
2258.85117	2.06839
2256.79767	2.06844
2254.74417	2.06597
2252.69067	2.06522
2250.63717	2.06847
2248.58367	2.07175
2246.53017	2.07263
2244.47667	2.07327
2242.42316	2.07418
2240.36966	2.07447
2238.31616	2.07310
2236.26266	2.07109
2234.20916	2.07044
2232.15566	2.06946
2230.10216	2.06712
2228.04866	2.06705
2225.99516	2.06911
2223.94165	2.06863
2221.88815	2.06737
2219.83465	2.06812
2217.78115	2.06907
2215.72765	2.06921
2213.67415	2.06928
2211.62065	2.07055
2209.56715	2.07191
2207.51365	2.07222
2205.46014	2.07253
2203.40664	2.07241
2201.35314	2.07003
2199.29964	2.06617
2197.24614	2.06558
2195.19264	2.06892
2193.13914	2.07081
2191.08564	2.07046
2189.03214	2.07097
2186.97864	2.07253
2184.92513	2.07398
2182.87163	2.07420
2180.81813	2.07363
2178.76463	2.07452
2176.71113	2.07617
2174.65763	2.07570
2172.60413	2.07285
2170.55063	2.07111
2168.49713	2.07383
2166.44362	2.07860
2164.39012	2.08029
2162.33662	2.07879
2160.28312	2.07903
2158.22962	2.08234
2156.17612	2.08444
2154.12262	2.08382
2152.06912	2.08238
2150.01562	2.07993
2147.96211	2.07789
2145.90861	2.07891
2143.85511	2.08054
2141.80161	2.08116
2139.74811	2.08171
2137.69461	2.07999
2135.64111	2.07675
2133.58761	2.07643
2131.53411	2.07939
2129.48061	2.08332
2127.42710	2.08542
2125.37360	2.08398
2123.32010	2.08193
2121.26660	2.08102
2119.21310	2.07916
2117.15960	2.07681
2115.10610	2.07675
2113.05260	2.07894
2110.99910	2.08052
2108.94559	2.08101
2106.89209	2.08167
2104.83859	2.08229
2102.78509	2.08201
2100.73159	2.08127
2098.67809	2.08195
2096.62459	2.08345
2094.57109	2.08399
2092.51759	2.08434
2090.46409	2.08492
2088.41058	2.08508
2086.35708	2.08412
2084.30358	2.08251
2082.25008	2.08266
2080.19658	2.08429
2078.14308	2.08523
2076.08958	2.08535
2074.03608	2.08495
2071.98258	2.08417
2069.92907	2.08230
2067.87557	2.08015
2065.82207	2.08029
2063.76857	2.08277
2061.71507	2.08487
2059.66157	2.08413
2057.60807	2.08166
2055.55457	2.08102
2053.50107	2.08329
2051.44756	2.08622
2049.39406	2.08768
2047.34056	2.08813
2045.28706	2.08809
2043.23356	2.08718
2041.18006	2.08689
2039.12656	2.08781
2037.07306	2.08719
2035.01956	2.08495
2032.96606	2.08534
2030.91255	2.08857
2028.85905	2.09049
2026.80555	2.08926
2024.75205	2.08714
2022.69855	2.08610
2020.64505	2.08492
2018.59155	2.08305
2016.53805	2.08208
2014.48455	2.08379
2012.43104	2.08644
2010.37754	2.08802
2008.32404	2.09013
2006.27054	2.09131
2004.21704	2.09022
2002.16354	2.08946
2000.11004	2.08953
1998.05654	2.08960
1996.00304	2.08907
1993.94953	2.08867
1991.89603	2.08978
1989.84253	2.09011
1987.78903	2.08795
1985.73553	2.08651
1983.68203	2.08762
1981.62853	2.08850
1979.57503	2.08761
1977.52153	2.08610
1975.46803	2.08641
1973.41452	2.08932
1971.36102	2.09245
1969.30752	2.09486
1967.25402	2.09473
1965.20052	2.09150
1963.14702	2.08855
1961.09352	2.08740
1959.04002	2.08765
1956.98652	2.08909
1954.93301	2.09156
1952.87951	2.09401
1950.82601	2.09592
1948.77251	2.09566
1946.71901	2.09385
1944.66551	2.09525
1942.61201	2.09783
1940.55851	2.09613
1938.50501	2.09258
1936.45151	2.08988
1934.39800	2.08755
1932.34450	2.08633
1930.29100	2.08816
1928.23750	2.09157
1926.18400	2.09400
1924.13050	2.09695
1922.07700	2.09930
1920.02350	2.09967
1917.97000	2.10223
1915.91649	2.10481
1913.86299	2.10379
1911.80949	2.10317
1909.75599	2.10293
1907.70249	2.10109
1905.64899	2.10065
1903.59549	2.10195
1901.54199	2.10361
1899.48849	2.10508
1897.43498	2.10543
1895.38148	2.10571
1893.32798	2.10669
1891.27448	2.10674
1889.22098	2.10711
1887.16748	2.10984
1885.11398	2.11078
1883.06048	2.10841
1881.00698	2.10787
1878.95348	2.11091
1876.89997	2.11299
1874.84647	2.11181
1872.79297	2.10905
1870.73947	2.10646
1868.68597	2.10649
1866.63247	2.10913
1864.57897	2.11030
1862.52547	2.11049
1860.47197	2.11347
1858.41846	2.11650
1856.36496	2.11540
1854.31146	2.11394
1852.25796	2.11587
1850.20446	2.11972
1848.15096	2.12257
1846.09746	2.12343
1844.04396	2.12280
1841.99046	2.12264
1839.93696	2.12348
1837.88345	2.12289
1835.82995	2.12129
1833.77645	2.12231
1831.72295	2.12407
1829.66945	2.12539
1827.61595	2.12919
1825.56245	2.13228
1823.50895	2.13360
1821.45545	2.13618
1819.40194	2.14076
1817.34844	2.14439
1815.29494	2.14400
1813.24144	2.14359
1811.18794	2.14687
1809.13444	2.15113
1807.08094	2.15411
1805.02744	2.15721
1802.97394	2.16173
1800.92043	2.16513
1798.86693	2.16541
1796.81343	2.16670
1794.75993	2.17051
1792.70643	2.17566
1790.65293	2.18006
1788.59943	2.18358
1786.54593	2.18770
1784.49243	2.19341
1782.43893	2.20094
1780.38542	2.20655
1778.33192	2.21059
1776.27842	2.21709
1774.22492	2.22391
1772.17142	2.22872
1770.11792	2.23573
1768.06442	2.24545
1766.01092	2.25645
1763.95742	2.27314
1761.90391	2.29950
1759.85041	2.32453
1757.79691	2.34205
1755.74341	2.36133
1753.68991	2.38379
1751.63641	2.41140
1749.58291	2.43810
1747.52941	2.42981
1745.47591	2.37944
1743.42240	2.30701
1741.36890	2.22621
1739.31540	2.14752
1737.26190	2.08843
1735.20840	2.03821
1733.15490	1.98775
1731.10140	1.95496
1729.04790	1.92905
1726.99440	1.90468
1724.94090	1.88370
1722.88739	1.86623
1720.83389	1.85340
1718.78039	1.84643
1716.72689	1.85243
1714.67339	1.86822
1712.61989	1.88187
1710.56639	1.89345
1708.51289	1.90461
1706.45939	1.91702
1704.40588	1.93024
1702.35238	1.93843
1700.29888	1.94449
1698.24538	1.95516
1696.19188	1.96856
1694.13838	1.98109
1692.08488	1.98754
1690.03138	1.99005
1687.97788	1.99192
1685.92438	1.99285
1683.87087	1.99680
1681.81737	2.00614
1679.76387	2.01060
1677.71037	2.00964
1675.65687	2.01060
1673.60337	2.01687
1671.54987	2.02217
1669.49637	2.02744
1667.44287	2.03244
1665.38936	2.03333
1663.33586	2.03390
1661.28236	2.03681
1659.22886	2.03908
1657.17536	2.04004
1655.12186	2.04053
1653.06836	2.04279
1651.01486	2.04801
1648.96136	2.05176
1646.90785	2.05403
1644.85435	2.05525
1642.80085	2.05736
1640.74735	2.05763
1638.69385	2.05290
1636.64035	2.04901
1634.58685	2.05547
1632.53335	2.06239
1630.47985	2.06297
1628.42635	2.06072
1626.37284	2.06111
1624.31934	2.06479
1622.26584	2.06820
1620.21234	2.06854
1618.15884	2.06666
1616.10534	2.06893
1614.05184	2.07521
1611.99834	2.07700
1609.94484	2.07521
1607.89133	2.07460
1605.83783	2.07452
1603.78433	2.07536
1601.73083	2.07952
1599.67733	2.08431
1597.62383	2.08584
1595.57033	2.08376
1593.51683	2.08220
1591.46333	2.08379
1589.40982	2.08591
1587.35632	2.08625
1585.30282	2.08594
1583.24932	2.08641
1581.19582	2.08780
1579.14232	2.08899
1577.08882	2.09118
1575.03532	2.09605
1572.98182	2.09632
1570.92832	2.09201
1568.87481	2.08942
1566.82131	2.09028
1564.76781	2.09386
1562.71431	2.09930
1560.66081	2.10143
1558.60731	2.10264
1556.55381	2.10741
1554.50031	2.10881
1552.44681	2.11036
1550.39330	2.11222
1548.33980	2.11097
1546.28630	2.10816
1544.23280	2.10852
1542.17930	2.10923
1540.12580	2.10599
1538.07230	2.10870
1536.01880	2.11203
1533.96530	2.11517
1531.91180	2.11818
1529.85829	2.11453
1527.80479	2.10969
1525.75129	2.11235
1523.69779	2.11822
1521.64429	2.12351
1519.59079	2.12883
1517.53729	2.13150
1515.48379	2.13353
1513.43029	2.13561
1511.37678	2.13716
1509.32328	2.13880
1507.26978	2.14494
1505.21628	2.15770
1503.16278	2.16390
1501.10928	2.16343
1499.05578	2.15956
1497.00228	2.15920
1494.94878	2.16602
1492.89527	2.17263
1490.84177	2.17576
1488.78827	2.17575
1486.73477	2.17686
1484.68127	2.17828
1482.62777	2.17583
1480.57427	2.16956
1478.52077	2.15936
1476.46727	2.14647
1474.41377	2.13606
1472.36026	2.13345
1470.30676	2.13374
1468.25326	2.12988
1466.19976	2.12585
1464.14626	2.12571
1462.09276	2.12471
1460.03926	2.11924
1457.98576	2.11223
1455.93226	2.11490
1453.87875	2.11826
1451.82525	2.10959
1449.77175	2.09469
1447.71825	2.08174
1445.66475	2.06962
1443.61125	2.05707
1441.55775	2.04725
1439.50425	2.03974
1437.45075	2.03307
1435.39725	2.02899
1433.34374	2.02439
1431.29024	2.01910
1429.23674	2.01639
1427.18324	2.01561
1425.12974	2.01743
1423.07624	2.02335
1421.02274	2.02894
1418.96924	2.03295
1416.91574	2.03960
1414.86223	2.04679
1412.80873	2.05219
1410.75523	2.05575
1408.70173	2.06005
1406.64823	2.06554
1404.59473	2.07069
1402.54123	2.07566
1400.48773	2.07939
1398.43423	2.08359
1396.38072	2.08974
1394.32722	2.09479
1392.27372	2.09614
1390.22022	2.09506
1388.16672	2.09247
1386.11322	2.08767
1384.05972	2.08122
1382.00622	2.07272
1379.95272	2.06552
1377.89922	2.06450
1375.84571	2.06758
1373.79221	2.07238
1371.73871	2.07810
1369.68521	2.08004
1367.63171	2.07528
1365.57821	2.06782
1363.52471	2.06308
1361.47121	2.06398
1359.41771	2.06859
1357.36420	2.07256
1355.31070	2.07480
1353.25720	2.07737
1351.20370	2.08243
1349.15020	2.08745
1347.09670	2.08946
1345.04320	2.09263
1342.98970	2.09864
1340.93620	2.10268
1338.88269	2.10386
1336.82919	2.10521
1334.77569	2.10689
1332.72219	2.10843
1330.66869	2.11118
1328.61519	2.11577
1326.56169	2.12072
1324.50819	2.12483
1322.45469	2.13025
1320.40119	2.13967
1318.34768	2.14931
1316.29418	2.15321
1314.24068	2.15363
1312.18718	2.15561
1310.13368	2.15880
1308.08018	2.16173
1306.02668	2.16275
1303.97318	2.16347
1301.91968	2.16635
1299.86617	2.16654
1297.81267	2.16595
1295.75917	2.16970
1293.70567	2.17099
1291.65217	2.16710
1289.59867	2.16454
1287.54517	2.16581
1285.49167	2.16849
1283.43817	2.16985
1281.38467	2.16791
1279.33116	2.16296
1277.27766	2.15886
1275.22416	2.15731
1273.17066	2.15689
1271.11716	2.15551
1269.06366	2.15189
1267.01016	2.14923
1264.95666	2.14950
1262.90316	2.14956
1260.84965	2.14850
1258.79615	2.14737
1256.74265	2.14824
1254.68915	2.15221
1252.63565	2.15418
1250.58215	2.15064
1248.52865	2.14551
1246.47515	2.14341
1244.42165	2.14089
1242.36814	2.13373
1240.31464	2.12407
1238.26114	2.11153
1236.20764	2.09940
1234.15414	2.09345
1232.10064	2.09079
1230.04714	2.08782
1227.99364	2.08526
1225.94014	2.08530
1223.88664	2.08923
1221.83313	2.09509
1219.77963	2.10149
1217.72613	2.10877
1215.67263	2.11461
1213.61913	2.11985
1211.56563	2.12953
1209.51213	2.14244
1207.45863	2.15460
1205.40513	2.16248
1203.35162	2.16491
1201.29812	2.16471
1199.24462	2.15919
1197.19112	2.14757
1195.13762	2.13524
1193.08412	2.12287
1191.03062	2.11127
1188.97712	2.10366
1186.92362	2.09920
1184.87012	2.09655
1182.81661	2.09378
1180.76311	2.08621
1178.70961	2.07284
1176.65611	2.05326
1174.60261	2.02708
1172.54911	2.00110
1170.49561	1.98186
1168.44211	1.96838
1166.38861	1.95624
1164.33510	1.94435
1162.28160	1.93572
1160.22810	1.93040
1158.17460	1.92547
1156.12110	1.91963
1154.06760	1.91405
1152.01410	1.90845
1149.96060	1.89812
1147.90710	1.88388
1145.85359	1.87190
1143.80009	1.86266
1141.74659	1.85461
1139.69309	1.84854
1137.63959	1.84477
1135.58609	1.84300
1133.53259	1.84326
1131.47909	1.84555
1129.42559	1.85004
1127.37209	1.85513
1125.31858	1.85907
1123.26508	1.86395
1121.21158	1.87023
1119.15808	1.87498
1117.10458	1.87729
1115.05108	1.87740
1112.99758	1.87544
1110.94408	1.87347
1108.89058	1.87453
1106.83707	1.88035
1104.78357	1.88854
1102.73007	1.89424
1100.67657	1.89668
1098.62307	1.89919
1096.56957	1.90209
1094.51607	1.90200
1092.46257	1.89935
1090.40907	1.89833
1088.35556	1.90151
1086.30206	1.90715
1084.24856	1.91197
1082.19506	1.91558
1080.14156	1.91902
1078.08806	1.92271
1076.03456	1.92540
1073.98106	1.92718
1071.92756	1.93085
1069.87406	1.93631
1067.82055	1.93966
1065.76705	1.94064
1063.71355	1.94238
1061.66005	1.94480
1059.60655	1.94645
1057.55305	1.94729
1055.49955	1.94833
1053.44605	1.95187
1051.39255	1.96027
1049.33904	1.97135
1047.28554	1.98058
1045.23204	1.98821
1043.17854	1.99623
1041.12504	2.00447
1039.07154	2.01082
1037.01804	2.01320
1034.96454	2.01246
1032.91104	2.00754
1030.85754	1.99328
1028.80403	1.97237
1026.75053	1.95343
1024.69703	1.93818
1022.64353	1.92579
1020.59003	1.91738
1018.53653	1.91250
1016.48303	1.90973
1014.42953	1.90944
1012.37603	1.91174
1010.32252	1.91413
1008.26902	1.91570
1006.21552	1.91856
1004.16202	1.92385
1002.10852	1.93203
1000.05502	1.94192
998.00152	1.95022
995.94802	1.95468
993.89452	1.95560
991.84101	1.95611
989.78751	1.95854
987.73401	1.96146
985.68051	1.96377
983.62701	1.96678
981.57351	1.96858
979.52001	1.96919
977.46651	1.97239
975.41301	1.97578
973.35951	1.97548
971.30600	1.97269
969.25250	1.96920
967.19900	1.96593
965.14550	1.96412
963.09200	1.96254
961.03850	1.96119
958.98500	1.96212
956.93150	1.96339
954.87800	1.96338
952.82449	1.96471
950.77099	1.96818
948.71749	1.97032
946.66399	1.97102
944.61049	1.97393
942.55699	1.97704
940.50349	1.97734
938.44999	1.97625
936.39649	1.97452
934.34298	1.97418
932.28948	1.97540
930.23598	1.97549
928.18248	1.97683
926.12898	1.97985
924.07548	1.98101
922.02198	1.97979
919.96848	1.98002
917.91498	1.98391
915.86148	1.98859
913.80797	1.99221
911.75447	1.99428
909.70097	1.99398
907.64747	1.99236
905.59397	1.99249
903.54047	1.99394
901.48697	1.99411
899.43347	1.99545
897.37997	1.99945
895.32646	2.00308
893.27296	2.00603
891.21946	2.00984
889.16596	2.01313
887.11246	2.01396
885.05896	2.01484
883.00546	2.01726
880.95196	2.01833
878.89846	2.01863
876.84496	2.01966
874.79145	2.02062
872.73795	2.01969
870.68445	2.01767
868.63095	2.01828
866.57745	2.01970
864.52395	2.01649
862.47045	2.00841
860.41695	1.99960
858.36345	1.99037
856.30994	1.98186
854.25644	1.97898
852.20294	1.98153
850.14944	1.98652
848.09594	1.99236
846.04244	1.99618
843.98894	1.99658
841.93544	1.99714
839.88194	1.99943
837.82843	1.99996
835.77493	1.99812
833.72143	1.99519
831.66793	1.99148
829.61443	1.99015
827.56093	1.99091
825.50743	1.98999
823.45393	1.98771
821.40043	1.98669
819.34693	1.98935
817.29342	1.99542
815.23992	2.00194
813.18642	2.00424
811.13292	2.00268
809.07942	2.00237
807.02592	2.00266
804.97242	2.00164
802.91892	2.00118
800.86542	2.00225
798.81191	2.00504
796.75841	2.00665
794.70491	2.00610
792.65141	2.00904
790.59791	2.01364
788.54441	2.01636
786.49091	2.02056
784.43741	2.02320
782.38391	2.02215
780.33041	2.02255
778.27690	2.02197
776.22340	2.01598
774.16990	2.01283
772.11640	2.01791
770.06290	2.02072
768.00940	2.01506
765.95590	2.01050
763.90240	2.01585
761.84890	2.02222
759.79539	2.01719
757.74189	2.00512
755.68839	1.99285
753.63489	1.98484
751.58139	1.98216
749.52789	1.97887
747.47439	1.97476
745.42089	1.97478
743.36739	1.97717
741.31388	1.97997
739.26038	1.98339
737.20688	1.98571
735.15338	1.98779
733.09988	1.98992
731.04638	1.99257
728.99288	1.99665
726.93938	1.99978
724.88588	1.99830
722.83238	1.99507
720.77887	1.99724
718.72537	2.00089
716.67187	2.00270
714.61837	2.00649
712.56487	2.00977
710.51137	2.00709
708.45787	2.00064
706.40437	1.99686
704.35087	1.99877
702.29736	2.00223
700.24386	1.99716
698.19036	1.98862
696.13686	1.98759
694.08336	1.98874
692.02986	1.99400
689.97636	2.00589
687.92286	2.00859
685.86936	2.00028
683.81585	1.99542
681.76235	2.00051
679.70885	2.00919
677.65535	2.01384
675.60185	2.01593
673.54835	2.02095
671.49485	2.03159
669.44135	2.04338
667.38785	2.05215
665.33435	2.05280
663.28084	2.04700
661.22734	2.03448
659.17384	2.02443
657.12034	2.03242
655.06684	2.04730
653.01334	2.04881
650.95984	2.04049
648.90634	2.03328
646.85284	2.02911
644.79933	2.02743
642.74583	2.03034
640.69233	2.03694
638.63883	2.04296
636.58533	2.04115
634.53183	2.03304
632.47833	2.03032
630.42483	2.03399
628.37133	2.03831
626.31783	2.04046
624.26432	2.03984
622.21082	2.04318
620.15732	2.05322
618.10382	2.06104
616.05032	2.06000
613.99682	2.05194
611.94332	2.04231
609.88982	2.03748
607.83632	2.04155
605.78281	2.04443
603.72931	2.03902
601.67581	2.03791
599.62231	2.04596
597.56881	2.05379
595.51531	2.05681
593.46181	2.05802
591.40831	2.05907
589.35481	2.06021
587.30130	2.06385
585.24780	2.07283
583.19430	2.07344
581.14080	2.05956
579.08730	2.05122
577.03380	2.05463
574.98030	2.06444
572.92680	2.07497
570.87330	2.08437
568.81980	2.08259
566.76629	2.06275
564.71279	2.05047
562.65929	2.05410
560.60579	2.05249
558.55229	2.04802
556.49879	2.05832
554.44529	2.07142
552.39179	2.06464
550.33829	2.04931
548.28478	2.03771
546.23128	2.03572
544.17778	2.04439
542.12428	2.05085
540.07078	2.04777
538.01728	2.04628
535.96378	2.06074
533.91028	2.08260
531.85678	2.08404
529.80327	2.06241
527.74977	2.04610
525.69627	2.05005
523.64277	2.06312
521.58927	2.07954
519.53577	2.07868
517.48227	2.05656
515.42877	2.04408
513.37527	2.04399
511.32177	2.05018
509.26826	2.06351
507.21476	2.07822
505.16126	2.08340
503.10776	2.07222
501.05426	2.05289
499.00076	2.04850
496.94726	2.06504
494.89376	2.07526
492.84026	2.06041
490.78675	2.04965
488.73325	2.05057
486.67975	2.05969
484.62625	2.07421
482.57275	2.06704
480.51925	2.03666
478.46575	2.00705
476.41225	2.00065
474.35875	2.01787
472.30525	2.02822
470.25174	2.01983
468.19824	2.01040
466.14474	2.00329
464.09124	1.99955
462.03774	2.00467
459.98424	2.01987
457.93074	2.03655
455.87724	2.02840
453.82374	2.01035
451.77023	2.01307
449.71673	2.01321
447.66323	2.00813
445.60973	2.02767
443.55623	2.05227
441.50273	2.07526
439.44923	2.10441
437.39573	2.09794
435.34223	2.06345
433.28872	2.05487
431.23522	2.06387
429.18172	2.06913
427.12822	2.06661
425.07472	2.05890
423.02122	2.06492
420.96772	2.08882
418.91422	2.08838
416.86072	2.04969
414.80722	2.03190
412.75371	2.02255
410.70021	2.02102
408.64671	2.05315
406.59321	2.07599
404.53971	2.06314
402.48621	2.05444
400.43271	2.04367
398.37921	2.04327
