5996.22311	1.55195
5994.16961	1.55751
5992.11611	1.56440
5990.06261	1.57184
5988.00911	1.56907
5985.95561	1.56258
5983.90211	1.56314
5981.84860	1.56845
5979.79510	1.57097
5977.74160	1.56987
5975.68810	1.56790
5973.63460	1.56078
5971.58110	1.54743
5969.52760	1.54210
5967.47410	1.55345
5965.42060	1.56623
5963.36710	1.56853
5961.31359	1.57108
5959.26009	1.57418
5957.20659	1.56561
5955.15309	1.55861
5953.09959	1.56688
5951.04609	1.57790
5948.99259	1.58111
5946.93909	1.57292
5944.88559	1.55699
5942.83208	1.55035
5940.77858	1.56494
5938.72508	1.58221
5936.67158	1.57680
5934.61808	1.55837
5932.56458	1.55155
5930.51108	1.56047
5928.45758	1.57114
5926.40408	1.56694
5924.35058	1.55281
5922.29707	1.54883
5920.24357	1.55203
5918.19007	1.55463
5916.13657	1.56081
5914.08307	1.57437
5912.02957	1.59021
5909.97607	1.59185
5907.92257	1.57617
5905.86907	1.56002
5903.81556	1.55636
5901.76206	1.56445
5899.70856	1.57693
5897.65506	1.58909
5895.60156	1.59774
5893.54806	1.59929
5891.49456	1.59100
5889.44106	1.58172
5887.38756	1.58415
5885.33405	1.58967
5883.28055	1.58410
5881.22705	1.57661
5879.17355	1.58295
5877.12005	1.60002
5875.06655	1.60744
5873.01305	1.60253
5870.95955	1.59830
5868.90605	1.59653
5866.85255	1.59502
5864.79904	1.59410
5862.74554	1.59844
5860.69204	1.60715
5858.63854	1.61078
5856.58504	1.60909
5854.53154	1.60555
5852.47804	1.59553
5850.42454	1.59032
5848.37104	1.60184
5846.31753	1.61694
5844.26403	1.62042
5842.21053	1.61291
5840.15703	1.60169
5838.10353	1.59502
5836.05003	1.59617
5833.99653	1.59859
5831.94303	1.60157
5829.88953	1.60419
5827.83602	1.60283
5825.78252	1.60795
5823.72902	1.61907
5821.67552	1.62790
5819.62202	1.62902
5817.56852	1.61673
5815.51502	1.60498
5813.46152	1.60666
5811.40802	1.61182
5809.35452	1.61081
5807.30101	1.61119
5805.24751	1.61580
5803.19401	1.61645
5801.14051	1.61128
5799.08701	1.61018
5797.03351	1.61769
5794.98001	1.62166
5792.92651	1.61488
5790.87301	1.60967
5788.81950	1.61306
5786.76600	1.61492
5784.71250	1.61242
5782.65900	1.61921
5780.60550	1.63359
5778.55200	1.63508
5776.49850	1.62040
5774.44500	1.61043
5772.39150	1.61225
5770.33800	1.61366
5768.28449	1.61727
5766.23099	1.62210
5764.17749	1.61821
5762.12399	1.61278
5760.07049	1.61023
5758.01699	1.60860
5755.96349	1.61053
5753.90999	1.61528
5751.85649	1.61225
5749.80298	1.60328
5747.74948	1.60319
5745.69598	1.61115
5743.64248	1.61134
5741.58898	1.60219
5739.53548	1.59994
5737.48198	1.60688
5735.42848	1.61132
5733.37498	1.61106
5731.32147	1.61013
5729.26797	1.60994
5727.21447	1.60617
5725.16097	1.60144
5723.10747	1.60549
5721.05397	1.60963
5719.00047	1.60617
5716.94697	1.60785
5714.89347	1.61078
5712.83997	1.60637
5710.78646	1.60415
5708.73296	1.60690
5706.67946	1.60719
5704.62596	1.60682
5702.57246	1.61384
5700.51896	1.61904
5698.46546	1.61521
5696.41196	1.61294
5694.35846	1.60880
5692.30495	1.60058
5690.25145	1.59984
5688.19795	1.60517
5686.14445	1.60652
5684.09095	1.60419
5682.03745	1.60906
5679.98395	1.61724
5677.93045	1.61883
5675.87695	1.62032
5673.82345	1.62284
5671.76994	1.61851
5669.71644	1.61096
5667.66294	1.60716
5665.60944	1.60734
5663.55594	1.61033
5661.50244	1.60843
5659.44894	1.60256
5657.39544	1.60223
5655.34194	1.60305
5653.28843	1.60354
5651.23493	1.60804
5649.18143	1.60912
5647.12793	1.60266
5645.07443	1.59703
5643.02093	1.59717
5640.96743	1.59722
5638.91393	1.59390
5636.86043	1.59416
5634.80692	1.59489
5632.75342	1.59288
5630.69992	1.59786
5628.64642	1.60386
5626.59292	1.60051
5624.53942	1.59712
5622.48592	1.59834
5620.43242	1.59716
5618.37892	1.59609
5616.32542	1.59817
5614.27191	1.60101
5612.21841	1.60116
5610.16491	1.59576
5608.11141	1.59383
5606.05791	1.59745
5604.00441	1.59995
5601.95091	1.60312
5599.89741	1.60613
5597.84391	1.60188
5595.79040	1.59065
5593.73690	1.58640
5591.68340	1.58966
5589.62990	1.58929
5587.57640	1.59089
5585.52290	1.59762
5583.46940	1.60207
5581.41590	1.60226
5579.36240	1.59572
5577.30889	1.58978
5575.25539	1.59557
5573.20189	1.60441
5571.14839	1.60815
5569.09489	1.60820
5567.04139	1.60427
5564.98789	1.59898
5562.93439	1.59487
5560.88089	1.59275
5558.82739	1.59310
5556.77388	1.59483
5554.72038	1.59661
5552.66688	1.60246
5550.61338	1.60840
5548.55988	1.60188
5546.50638	1.59267
5544.45288	1.59515
5542.39938	1.60151
5540.34588	1.60078
5538.29237	1.59955
5536.23887	1.60570
5534.18537	1.61296
5532.13187	1.61097
5530.07837	1.60295
5528.02487	1.60120
5525.97137	1.60266
5523.91787	1.60365
5521.86437	1.60839
5519.81087	1.60966
5517.75736	1.60300
5515.70386	1.59561
5513.65036	1.59351
5511.59686	1.59593
5509.54336	1.59840
5507.48986	1.59754
5505.43636	1.59531
5503.38286	1.59682
5501.32936	1.60132
5499.27585	1.60276
5497.22235	1.60029
5495.16885	1.59788
5493.11535	1.60014
5491.06185	1.60254
5489.00835	1.60182
5486.95485	1.60394
5484.90135	1.60468
5482.84785	1.59983
5480.79434	1.59253
5478.74084	1.58727
5476.68734	1.58841
5474.63384	1.59581
5472.58034	1.60141
5470.52684	1.60032
5468.47334	1.59754
5466.41984	1.59532
5464.36634	1.59448
5462.31284	1.59867
5460.25933	1.60656
5458.20583	1.60861
5456.15233	1.60505
5454.09883	1.60508
5452.04533	1.60897
5449.99183	1.61077
5447.93833	1.61258
5445.88483	1.61774
5443.83133	1.61740
5441.77782	1.60903
5439.72432	1.59959
5437.67082	1.59494
5435.61732	1.59920
5433.56382	1.60522
5431.51032	1.60535
5429.45682	1.60463
5427.40332	1.60202
5425.34982	1.59903
5423.29631	1.60256
5421.24281	1.60402
5419.18931	1.59897
5417.13581	1.59398
5415.08231	1.58962
5413.02881	1.58896
5410.97531	1.59278
5408.92181	1.59523
5406.86831	1.59571
5404.81481	1.59579
5402.76130	1.59631
5400.70780	1.59759
5398.65430	1.59834
5396.60080	1.59826
5394.54730	1.59777
5392.49380	1.59877
5390.44030	1.60033
5388.38680	1.60083
5386.33330	1.60321
5384.27979	1.60512
5382.22629	1.60331
5380.17279	1.59879
5378.11929	1.59205
5376.06579	1.58938
5374.01229	1.59654
5371.95879	1.60467
5369.90529	1.60362
5367.85179	1.59676
5365.79829	1.59456
5363.74478	1.59766
5361.69128	1.59756
5359.63778	1.59827
5357.58428	1.60399
5355.53078	1.60671
5353.47728	1.60301
5351.42378	1.59716
5349.37028	1.60007
5347.31678	1.61090
5345.26327	1.61499
5343.20977	1.61064
5341.15627	1.60495
5339.10277	1.60013
5337.04927	1.59751
5334.99577	1.59606
5332.94227	1.59615
5330.88877	1.59975
5328.83527	1.60434
5326.78176	1.60635
5324.72826	1.60233
5322.67476	1.59369
5320.62126	1.58946
5318.56776	1.59221
5316.51426	1.59633
5314.46076	1.59746
5312.40726	1.59751
5310.35376	1.60206
5308.30026	1.60897
5306.24675	1.61175
5304.19325	1.61215
5302.13975	1.61558
5300.08625	1.61948
5298.03275	1.61584
5295.97925	1.60733
5293.92575	1.60211
5291.87225	1.60346
5289.81875	1.60967
5287.76524	1.61686
5285.71174	1.62385
5283.65824	1.62631
5281.60474	1.62199
5279.55124	1.61810
5277.49774	1.61912
5275.44424	1.61988
5273.39074	1.61424
5271.33724	1.60793
5269.28374	1.61122
5267.23023	1.61780
5265.17673	1.61888
5263.12323	1.61675
5261.06973	1.61626
5259.01623	1.62250
5256.96273	1.63295
5254.90923	1.63840
5252.85573	1.63445
5250.80223	1.62511
5248.74872	1.62080
5246.69522	1.62293
5244.64172	1.62550
5242.58822	1.63085
5240.53472	1.63458
5238.48122	1.63301
5236.42772	1.62848
5234.37422	1.62345
5232.32072	1.62344
5230.26721	1.62822
5228.21371	1.63257
5226.16021	1.63742
5224.10671	1.64500
5222.05321	1.64895
5219.99971	1.64739
5217.94621	1.64659
5215.89271	1.65021
5213.83921	1.65106
5211.78571	1.64674
5209.73220	1.64984
5207.67870	1.66284
5205.62520	1.67257
5203.57170	1.67123
5201.51820	1.66312
5199.46470	1.65597
5197.41120	1.65406
5195.35770	1.65374
5193.30420	1.65219
5191.25069	1.65267
5189.19719	1.65315
5187.14369	1.64874
5185.09019	1.64434
5183.03669	1.64656
5180.98319	1.64974
5178.92969	1.64801
5176.87619	1.64762
5174.82269	1.65093
5172.76918	1.65133
5170.71568	1.65144
5168.66218	1.65233
5166.60868	1.65006
5164.55518	1.64978
5162.50168	1.65009
5160.44818	1.64809
5158.39468	1.64802
5156.34118	1.65075
5154.28768	1.65256
5152.23417	1.64995
5150.18067	1.64504
5148.12717	1.64194
5146.07367	1.64338
5144.02017	1.64615
5141.96667	1.64950
5139.91317	1.65742
5137.85967	1.66335
5135.80617	1.66116
5133.75266	1.66167
5131.69916	1.67073
5129.64566	1.67515
5127.59216	1.67080
5125.53866	1.66758
5123.48516	1.66613
5121.43166	1.66141
5119.37816	1.65636
5117.32466	1.65771
5115.27116	1.66282
5113.21765	1.66441
5111.16415	1.66122
5109.11065	1.65392
5107.05715	1.64883
5105.00365	1.65191
5102.95015	1.65714
5100.89665	1.65581
5098.84315	1.65057
5096.78965	1.65051
5094.73614	1.65459
5092.68264	1.65834
5090.62914	1.65885
5088.57564	1.65506
5086.52214	1.65366
5084.46864	1.65495
5082.41514	1.65130
5080.36164	1.64389
5078.30814	1.64171
5076.25463	1.64785
5074.20113	1.65616
5072.14763	1.65841
5070.09413	1.65665
5068.04063	1.65883
5065.98713	1.66656
5063.93363	1.67083
5061.88013	1.66378
5059.82663	1.65754
5057.77313	1.66161
5055.71962	1.66648
5053.66612	1.66573
5051.61262	1.65876
5049.55912	1.65256
5047.50562	1.65550
5045.45212	1.65883
5043.39862	1.65748
5041.34512	1.66001
5039.29162	1.66624
5037.23811	1.66611
5035.18461	1.65974
5033.13111	1.65811
5031.07761	1.66205
5029.02411	1.66084
5026.97061	1.65445
5024.91711	1.65313
5022.86361	1.65516
5020.81011	1.65307
5018.75661	1.65084
5016.70310	1.65491
5014.64960	1.66055
5012.59610	1.65969
5010.54260	1.65521
5008.48910	1.65413
5006.43560	1.65830
5004.38210	1.66409
5002.32860	1.66477
5000.27510	1.66092
4998.22159	1.66025
4996.16809	1.66241
4994.11459	1.66174
4992.06109	1.66074
4990.00759	1.65896
4987.95409	1.65352
4985.90059	1.65224
4983.84709	1.65773
4981.79359	1.66345
4979.74008	1.66663
4977.68658	1.66514
4975.63308	1.66276
4973.57958	1.66701
4971.52608	1.67100
4969.47258	1.66587
4967.41908	1.66030
4965.36558	1.66098
4963.31208	1.66252
4961.25858	1.66454
4959.20507	1.66751
4957.15157	1.66718
4955.09807	1.66454
4953.04457	1.66324
4950.99107	1.66516
4948.93757	1.66471
4946.88407	1.65670
4944.83057	1.64892
4942.77707	1.64610
4940.72356	1.64568
4938.67006	1.64890
4936.61656	1.65425
4934.56306	1.65586
4932.50956	1.65483
4930.45606	1.65584
4928.40256	1.65649
4926.34906	1.65701
4924.29556	1.65943
4922.24205	1.65890
4920.18855	1.65985
4918.13505	1.66573
4916.08155	1.66617
4914.02805	1.66088
4911.97455	1.65912
4909.92105	1.66075
4907.86755	1.66226
4905.81405	1.66186
4903.76055	1.65645
4901.70704	1.65149
4899.65354	1.65349
4897.60004	1.65576
4895.54654	1.65640
4893.49304	1.66291
4891.43954	1.67026
4889.38604	1.66785
4887.33254	1.65834
4885.27904	1.65139
4883.22553	1.65138
4881.17203	1.65504
4879.11853	1.65950
4877.06503	1.66183
4875.01153	1.65924
4872.95803	1.65544
4870.90453	1.65476
4868.85103	1.65723
4866.79753	1.65930
4864.74403	1.65986
4862.69052	1.66157
4860.63702	1.66404
4858.58352	1.66436
4856.53002	1.66408
4854.47652	1.66512
4852.42302	1.66665
4850.36952	1.66630
4848.31602	1.66291
4846.26252	1.66027
4844.20901	1.66147
4842.15551	1.66531
4840.10201	1.66664
4838.04851	1.66274
4835.99501	1.65892
4833.94151	1.66053
4831.88801	1.66392
4829.83451	1.66343
4827.78101	1.65946
4825.72750	1.65824
4823.67400	1.66243
4821.62050	1.66590
4819.56700	1.66675
4817.51350	1.66764
4815.46000	1.66800
4813.40650	1.66713
4811.35300	1.66833
4809.29950	1.67153
4807.24600	1.67071
4805.19249	1.66757
4803.13899	1.66530
4801.08549	1.65992
4799.03199	1.65576
4796.97849	1.66004
4794.92499	1.66568
4792.87149	1.66467
4790.81799	1.66041
4788.76449	1.66049
4786.71098	1.66546
4784.65748	1.66905
4782.60398	1.67092
4780.55048	1.67223
4778.49698	1.67273
4776.44348	1.67485
4774.38998	1.67894
4772.33648	1.67901
4770.28298	1.67374
4768.22947	1.67060
4766.17597	1.67002
4764.12247	1.66932
4762.06897	1.66914
4760.01547	1.66845
4757.96197	1.66923
4755.90847	1.67243
4753.85497	1.67329
4751.80147	1.67078
4749.74797	1.66938
4747.69446	1.67057
4745.64096	1.67187
4743.58746	1.67080
4741.53396	1.67109
4739.48046	1.67589
4737.42696	1.67828
4735.37346	1.67569
4733.31996	1.67306
4731.26646	1.67178
4729.21295	1.67108
4727.15945	1.66966
4725.10595	1.66749
4723.05245	1.66625
4720.99895	1.66674
4718.94545	1.66891
4716.89195	1.67305
4714.83845	1.67681
4712.78495	1.67588
4710.73145	1.67243
4708.67794	1.67229
4706.62444	1.67541
4704.57094	1.67739
4702.51744	1.67661
4700.46394	1.67466
4698.41044	1.67201
4696.35694	1.66884
4694.30344	1.66631
4692.24994	1.66741
4690.19643	1.67310
4688.14293	1.67884
4686.08943	1.68065
4684.03593	1.67819
4681.98243	1.67628
4679.92893	1.67718
4677.87543	1.67585
4675.82193	1.67254
4673.76843	1.67127
4671.71492	1.67132
4669.66142	1.67204
4667.60792	1.67554
4665.55442	1.68053
4663.50092	1.68259
4661.44742	1.68085
4659.39392	1.67749
4657.34042	1.67545
4655.28692	1.67630
4653.23342	1.67668
4651.17991	1.67571
4649.12641	1.67720
4647.07291	1.67907
4645.01941	1.68061
4642.96591	1.68510
4640.91241	1.68917
4638.85891	1.68941
4636.80541	1.68831
4634.75191	1.68796
4632.69840	1.68764
4630.64490	1.68534
4628.59140	1.68143
4626.53790	1.67993
4624.48440	1.68198
4622.43090	1.68336
4620.37740	1.68182
4618.32390	1.67925
4616.27040	1.67696
4614.21690	1.67640
4612.16339	1.67775
4610.10989	1.67848
4608.05639	1.67745
4606.00289	1.67603
4603.94939	1.67615
4601.89589	1.67664
4599.84239	1.67553
4597.78889	1.67375
4595.73539	1.67336
4593.68188	1.67521
4591.62838	1.67913
4589.57488	1.68355
4587.52138	1.68519
4585.46788	1.68405
4583.41438	1.68322
4581.36088	1.68135
4579.30738	1.67803
4577.25388	1.67812
4575.20037	1.67952
4573.14687	1.67697
4571.09337	1.67440
4569.03987	1.67552
4566.98637	1.67882
4564.93287	1.68337
4562.87937	1.68761
4560.82587	1.68785
4558.77237	1.68339
4556.71887	1.67963
4554.66536	1.68204
4552.61186	1.68742
4550.55836	1.68932
4548.50486	1.68835
4546.45136	1.68831
4544.39786	1.68858
4542.34436	1.68559
4540.29086	1.68183
4538.23736	1.68268
4536.18385	1.68748
4534.13035	1.69188
4532.07685	1.69364
4530.02335	1.69347
4527.96985	1.69341
4525.91635	1.69410
4523.86285	1.69294
4521.80935	1.69151
4519.75585	1.69321
4517.70234	1.69360
4515.64884	1.69050
4513.59534	1.68972
4511.54184	1.69241
4509.48834	1.69440
4507.43484	1.69427
4505.38134	1.69231
4503.32784	1.69120
4501.27434	1.69380
4499.22084	1.69682
4497.16733	1.69674
4495.11383	1.69551
4493.06033	1.69666
4491.00683	1.70047
4488.95333	1.70454
4486.89983	1.70550
4484.84633	1.70317
4482.79283	1.70344
4480.73933	1.70750
4478.68582	1.71033
4476.63232	1.71014
4474.57882	1.70858
4472.52532	1.70757
4470.47182	1.70576
4468.41832	1.70425
4466.36482	1.70732
4464.31132	1.71054
4462.25782	1.71132
4460.20432	1.71445
4458.15081	1.71684
4456.09731	1.71661
4454.04381	1.71764
4451.99031	1.71889
4449.93681	1.71940
4447.88331	1.72112
4445.82981	1.72548
4443.77631	1.73101
4441.72281	1.73492
4439.66930	1.73626
4437.61580	1.73556
4435.56230	1.73598
4433.50880	1.73899
4431.45530	1.74166
4429.40180	1.74275
4427.34830	1.74510
4425.29480	1.74870
4423.24130	1.75178
4421.18779	1.75449
4419.13429	1.75526
4417.08079	1.75680
4415.02729	1.76219
4412.97379	1.76642
4410.92029	1.76715
4408.86679	1.76823
4406.81329	1.77191
4404.75979	1.77610
4402.70629	1.77924
4400.65278	1.78114
4398.59928	1.77990
4396.54578	1.77653
4394.49228	1.77576
4392.43878	1.77768
4390.38528	1.77909
4388.33178	1.77969
4386.27828	1.77915
4384.22478	1.77902
4382.17127	1.78158
4380.11777	1.78684
4378.06427	1.79230
4376.01077	1.79554
4373.95727	1.79976
4371.90377	1.80682
4369.85027	1.81136
4367.79677	1.80990
4365.74327	1.80670
4363.68976	1.80997
4361.63626	1.82102
4359.58276	1.82873
4357.52926	1.82822
4355.47576	1.82672
4353.42226	1.82935
4351.36876	1.83454
4349.31526	1.83878
4347.26176	1.84053
4345.20826	1.83856
4343.15475	1.83673
4341.10125	1.83795
4339.04775	1.84012
4336.99425	1.84283
4334.94075	1.84484
4332.88725	1.84475
4330.83375	1.84307
4328.78025	1.84285
4326.72675	1.84716
4324.67324	1.85302
4322.61974	1.85532
4320.56624	1.85324
4318.51274	1.84842
4316.45924	1.84541
4314.40574	1.84630
4312.35224	1.84537
4310.29874	1.84203
4308.24524	1.84121
4306.19174	1.84411
4304.13823	1.84932
4302.08473	1.85209
4300.03123	1.85113
4297.97773	1.85075
4295.92423	1.84952
4293.87073	1.84517
4291.81723	1.84070
4289.76373	1.83968
4287.71023	1.84249
4285.65672	1.84414
4283.60322	1.84453
4281.54972	1.84707
4279.49622	1.84834
4277.44272	1.84741
4275.38922	1.84611
4273.33572	1.84209
4271.28222	1.83825
4269.22872	1.83980
4267.17521	1.84112
4265.12171	1.83785
4263.06821	1.83451
4261.01471	1.83420
4258.96121	1.83725
4256.90771	1.84248
4254.85421	1.84725
4252.80071	1.84819
4250.74721	1.84235
4248.69371	1.83170
4246.64020	1.82501
4244.58670	1.82711
4242.53320	1.82987
4240.47970	1.82603
4238.42620	1.82177
4236.37270	1.82299
4234.31920	1.82523
4232.26570	1.82568
4230.21220	1.82723
4228.15869	1.82679
4226.10519	1.82289
4224.05169	1.82154
4221.99819	1.82309
4219.94469	1.82438
4217.89119	1.82453
4215.83769	1.82313
4213.78419	1.82213
4211.73069	1.82332
4209.67719	1.82429
4207.62368	1.82246
4205.57018	1.81909
4203.51668	1.81759
4201.46318	1.82103
4199.40968	1.82721
4197.35618	1.82888
4195.30268	1.82536
4193.24918	1.82315
4191.19568	1.82470
4189.14217	1.82658
4187.08867	1.82675
4185.03517	1.82569
4182.98167	1.82421
4180.92817	1.82313
4178.87467	1.82274
4176.82117	1.82351
4174.76767	1.82438
4172.71417	1.82497
4170.66066	1.82677
4168.60716	1.82973
4166.55366	1.83287
4164.50016	1.83409
4162.44666	1.83026
4160.39316	1.82275
4158.33966	1.81849
4156.28616	1.82031
4154.23266	1.82398
4152.17916	1.82425
4150.12565	1.82248
4148.07215	1.82270
4146.01865	1.82417
4143.96515	1.82518
4141.91165	1.82404
4139.85815	1.82163
4137.80465	1.82018
4135.75115	1.81912
4133.69765	1.81794
4131.64414	1.81886
4129.59064	1.82322
4127.53714	1.82680
4125.48364	1.82628
4123.43014	1.82346
4121.37664	1.82017
4119.32314	1.81744
4117.26964	1.81838
4115.21614	1.82301
4113.16263	1.82730
4111.10913	1.82856
4109.05563	1.82637
4107.00213	1.82337
4104.94863	1.82246
4102.89513	1.82321
4100.84163	1.82297
4098.78813	1.82250
4096.73463	1.82442
4094.68113	1.82619
4092.62762	1.82474
4090.57412	1.82252
4088.52062	1.82223
4086.46712	1.82274
4084.41362	1.82239
4082.36012	1.82229
4080.30662	1.82348
4078.25312	1.82493
4076.19962	1.82621
4074.14611	1.82766
4072.09261	1.82896
4070.03911	1.82865
4067.98561	1.82793
4065.93211	1.82985
4063.87861	1.83249
4061.82511	1.83417
4059.77161	1.83715
4057.71811	1.83904
4055.66461	1.83472
4053.61110	1.83014
4051.55760	1.83336
4049.50410	1.83756
4047.45060	1.83533
4045.39710	1.83319
4043.34360	1.83466
4041.29010	1.83508
4039.23660	1.83406
4037.18310	1.83402
4035.12959	1.83568
4033.07609	1.83589
4031.02259	1.83274
4028.96909	1.83072
4026.91559	1.83224
4024.86209	1.83410
4022.80859	1.83543
4020.75509	1.83844
4018.70159	1.84085
4016.64808	1.83783
4014.59458	1.83135
4012.54108	1.82733
4010.48758	1.82717
4008.43408	1.82907
4006.38058	1.82972
4004.32708	1.82867
4002.27358	1.82856
4000.22008	1.82857
3998.16658	1.82756
3996.11307	1.82701
3994.05957	1.82744
3992.00607	1.82752
3989.95257	1.82919
3987.89907	1.83434
3985.84557	1.83858
3983.79207	1.83904
3981.73857	1.83496
3979.68507	1.82815
3977.63156	1.82489
3975.57806	1.82705
3973.52456	1.82962
3971.47106	1.83009
3969.41756	1.83093
3967.36406	1.83086
3965.31056	1.82895
3963.25706	1.82767
3961.20356	1.82518
3959.15006	1.82061
3957.09655	1.82027
3955.04305	1.82607
3952.98955	1.83042
3950.93605	1.82853
3948.88255	1.82490
3946.82905	1.82411
3944.77555	1.82576
3942.72205	1.82827
3940.66855	1.82904
3938.61504	1.82842
3936.56154	1.82683
3934.50804	1.82317
3932.45454	1.82329
3930.40104	1.82879
3928.34754	1.82973
3926.29404	1.82554
3924.24054	1.82246
3922.18704	1.82074
3920.13353	1.81969
3918.08003	1.82208
3916.02653	1.82809
3913.97303	1.83052
3911.91953	1.82694
3909.86603	1.82253
3907.81253	1.81761
3905.75903	1.81154
3903.70553	1.81028
3901.65203	1.81721
3899.59852	1.82593
3897.54502	1.82982
3895.49152	1.82717
3893.43802	1.82206
3891.38452	1.82292
3889.33102	1.82359
3887.27752	1.81544
3885.22402	1.81181
3883.17052	1.81678
3881.11701	1.82142
3879.06351	1.82832
3877.01001	1.82897
3874.95651	1.82254
3872.90301	1.81947
3870.84951	1.81961
3868.79601	1.82213
3866.74251	1.82405
3864.68901	1.82421
3862.63550	1.82883
3860.58200	1.83171
3858.52850	1.82447
3856.47500	1.81131
3854.42150	1.80840
3852.36800	1.83002
3850.31450	1.84077
3848.26100	1.83297
3846.20750	1.82209
3844.15400	1.81749
3842.10049	1.82056
3840.04699	1.82617
3837.99349	1.83136
3835.93999	1.83269
3833.88649	1.83133
3831.83299	1.83188
3829.77949	1.83279
3827.72599	1.83114
3825.67249	1.83021
3823.61898	1.82928
3821.56548	1.83163
3819.51198	1.84043
3817.45848	1.84232
3815.40498	1.84297
3813.35148	1.84462
3811.29798	1.83917
3809.24448	1.83012
3807.19098	1.82782
3805.13748	1.83105
3803.08397	1.82846
3801.03047	1.83207
3798.97697	1.84270
3796.92347	1.84417
3794.86997	1.84287
3792.81647	1.84309
3790.76297	1.84141
3788.70947	1.83862
3786.65597	1.83631
3784.60246	1.83629
3782.54896	1.83753
3780.49546	1.83741
3778.44196	1.83877
3776.38846	1.84040
3774.33496	1.83770
3772.28146	1.83162
3770.22796	1.82991
3768.17446	1.83543
3766.12095	1.83862
3764.06745	1.83715
3762.01395	1.83279
3759.96045	1.83125
3757.90695	1.83844
3755.85345	1.84273
3753.79995	1.83833
3751.74645	1.83836
3749.69295	1.85238
3747.63945	1.85944
3745.58594	1.85393
3743.53244	1.85113
3741.47894	1.85202
3739.42544	1.84727
3737.37194	1.83976
3735.31844	1.84164
3733.26494	1.85566
3731.21144	1.86447
3729.15794	1.86134
3727.10443	1.85512
3725.05093	1.85809
3722.99743	1.86620
3720.94393	1.86662
3718.89043	1.86412
3716.83693	1.86548
3714.78343	1.86535
3712.72993	1.86295
3710.67643	1.86922
3708.62292	1.87850
3706.56942	1.88111
3704.51592	1.88012
3702.46242	1.87968
3700.40892	1.88251
3698.35542	1.88264
3696.30192	1.87823
3694.24842	1.87430
3692.19492	1.87200
3690.14142	1.87698
3688.08791	1.89448
3686.03441	1.90459
3683.98091	1.90139
3681.92741	1.89565
3679.87391	1.89447
3677.82041	1.89779
3675.76691	1.90913
3673.71341	1.92185
3671.65991	1.92126
3669.60640	1.92444
3667.55290	1.93636
3665.49940	1.93755
3663.44590	1.93138
3661.39240	1.92839
3659.33890	1.92892
3657.28540	1.93367
3655.23190	1.94185
3653.17840	1.94272
3651.12490	1.94182
3649.07139	1.95738
3647.01789	1.97902
3644.96439	1.98191
3642.91089	1.97364
3640.85739	1.96761
3638.80389	1.96540
3636.75039	1.96359
3634.69689	1.96492
3632.64339	1.96694
3630.58988	1.96604
3628.53638	1.97849
3626.48288	1.99613
3624.42938	1.99559
3622.37588	1.98732
3620.32238	1.98153
3618.26888	1.98720
3616.21538	2.00082
3614.16188	2.01094
3612.10837	2.01693
3610.05487	2.02016
3608.00137	2.02013
3605.94787	2.01799
3603.89437	2.01655
3601.84087	2.01733
3599.78737	2.01936
3597.73387	2.01935
3595.68037	2.02055
3593.62687	2.02577
3591.57336	2.02548
3589.51986	2.01840
3587.46636	2.02054
3585.41286	2.03630
3583.35936	2.04331
3581.30586	2.03746
3579.25236	2.03544
3577.19886	2.04304
3575.14536	2.04973
3573.09185	2.05095
3571.03835	2.04680
3568.98485	2.03665
3566.93135	2.03481
3564.87785	2.04652
3562.82435	2.05158
3560.77085	2.05269
3558.71735	2.05532
3556.66385	2.05466
3554.61035	2.05268
3552.55684	2.05333
3550.50334	2.05459
3548.44984	2.05445
3546.39634	2.05388
3544.34284	2.05128
3542.28934	2.05041
3540.23584	2.05386
3538.18234	2.05688
3536.12884	2.05858
3534.07533	2.05939
3532.02183	2.05695
3529.96833	2.05148
3527.91483	2.04625
3525.86133	2.04598
3523.80783	2.05170
3521.75433	2.05337
3519.70083	2.04688
3517.64733	2.04396
3515.59382	2.04599
3513.54032	2.04460
3511.48682	2.04228
3509.43332	2.04252
3507.37982	2.04286
3505.32632	2.04371
3503.27282	2.04813
3501.21932	2.05441
3499.16582	2.05395
3497.11232	2.04648
3495.05881	2.04214
3493.00531	2.04376
3490.95181	2.04485
3488.89831	2.04393
3486.84481	2.04543
3484.79131	2.04760
3482.73781	2.04635
3480.68431	2.04339
3478.63081	2.04255
3476.57730	2.04543
3474.52380	2.04707
3472.47030	2.04359
3470.41680	2.04001
3468.36330	2.03683
3466.30980	2.03115
3464.25630	2.02772
3462.20280	2.03068
3460.14930	2.03833
3458.09579	2.04585
3456.04229	2.04800
3453.98879	2.04504
3451.93529	2.04107
3449.88179	2.03752
3447.82829	2.03478
3445.77479	2.03363
3443.72129	2.03383
3441.66779	2.03642
3439.61429	2.04071
3437.56078	2.04333
3435.50728	2.04409
3433.45378	2.04471
3431.40028	2.04668
3429.34678	2.05084
3427.29328	2.05419
3425.23978	2.05301
3423.18628	2.04777
3421.13278	2.04166
3419.07927	2.03893
3417.02577	2.04092
3414.97227	2.04329
3412.91877	2.04379
3410.86527	2.04417
3408.81177	2.04291
3406.75827	2.03880
3404.70477	2.03808
3402.65127	2.04232
3400.59777	2.04353
3398.54426	2.04096
3396.49076	2.03775
3394.43726	2.03311
3392.38376	2.03113
3390.33026	2.03454
3388.27676	2.03956
3386.22326	2.04233
3384.16976	2.04170
3382.11626	2.04010
3380.06275	2.04069
3378.00925	2.04361
3375.95575	2.04531
3373.90225	2.04409
3371.84875	2.04299
3369.79525	2.04458
3367.74175	2.04715
3365.68825	2.04796
3363.63475	2.04802
3361.58124	2.04776
3359.52774	2.04651
3357.47424	2.04663
3355.42074	2.04992
3353.36724	2.05372
3351.31374	2.05567
3349.26024	2.05695
3347.20674	2.05656
3345.15324	2.05232
3343.09974	2.04866
3341.04623	2.05057
3338.99273	2.05212
3336.93923	2.04933
3334.88573	2.04880
3332.83223	2.05185
3330.77873	2.05282
3328.72523	2.04929
3326.67173	2.04446
3324.61823	2.04341
3322.56472	2.04685
3320.51122	2.05071
3318.45772	2.05112
3316.40422	2.04849
3314.35072	2.04424
3312.29722	2.04079
3310.24372	2.04293
3308.19022	2.04746
3306.13672	2.04588
3304.08321	2.04144
3302.02971	2.04297
3299.97621	2.04790
3297.92271	2.04769
3295.86921	2.04375
3293.81571	2.04287
3291.76221	2.04512
3289.70871	2.04779
3287.65521	2.05094
3285.60171	2.05369
3283.54820	2.05360
3281.49470	2.05078
3279.44120	2.04704
3277.38770	2.04565
3275.33420	2.04755
3273.28070	2.04883
3271.22720	2.04840
3269.17370	2.04803
3267.12020	2.04861
3265.06669	2.04993
3263.01319	2.04933
3260.95969	2.04728
3258.90619	2.04707
3256.85269	2.04925
3254.79919	2.05325
3252.74569	2.05604
3250.69219	2.05269
3248.63869	2.04624
3246.58519	2.04438
3244.53168	2.04669
3242.47818	2.04900
3240.42468	2.05009
3238.37118	2.04894
3236.31768	2.04626
3234.26418	2.04483
3232.21068	2.04608
3230.15718	2.05044
3228.10368	2.05644
3226.05017	2.05905
3223.99667	2.05577
3221.94317	2.05073
3219.88967	2.04899
3217.83617	2.04988
3215.78267	2.04942
3213.72917	2.04602
3211.67567	2.04056
3209.62217	2.03758
3207.56866	2.03934
3205.51516	2.04215
3203.46166	2.04473
3201.40816	2.04633
3199.35466	2.04847
3197.30116	2.05177
3195.24766	2.05119
3193.19416	2.04858
3191.14066	2.04674
3189.08716	2.04516
3187.03365	2.04538
3184.98015	2.04569
3182.92665	2.04447
3180.87315	2.04478
3178.81965	2.04777
3176.76615	2.05048
3174.71265	2.05059
3172.65915	2.04891
3170.60565	2.04887
3168.55214	2.05137
3166.49864	2.05408
3164.44514	2.05475
3162.39164	2.05400
3160.33814	2.05300
3158.28464	2.05022
3156.23114	2.04742
3154.17764	2.04784
3152.12414	2.05140
3150.07064	2.05569
3148.01713	2.05693
3145.96363	2.05565
3143.91013	2.05488
3141.85663	2.05525
3139.80313	2.05643
3137.74963	2.05519
3135.69613	2.05124
3133.64263	2.04946
3131.58913	2.05086
3129.53562	2.05198
3127.48212	2.05078
3125.42862	2.04797
3123.37512	2.04677
3121.32162	2.04951
3119.26812	2.05249
3117.21462	2.05198
3115.16112	2.05034
3113.10762	2.05043
3111.05411	2.05168
3109.00061	2.05325
3106.94711	2.05392
3104.89361	2.05170
3102.84011	2.04949
3100.78661	2.04963
3098.73311	2.04903
3096.67961	2.04906
3094.62611	2.05225
3092.57261	2.05578
3090.51910	2.05451
3088.46560	2.04885
3086.41210	2.04693
3084.35860	2.04763
3082.30510	2.04559
3080.25160	2.04622
3078.19810	2.05070
3076.14460	2.05402
3074.09110	2.05668
3072.03759	2.06006
3069.98409	2.06099
3067.93059	2.05953
3065.87709	2.05973
3063.82359	2.06132
3061.77009	2.06152
3059.71659	2.06017
3057.66309	2.06016
3055.60959	2.06077
3053.55608	2.05992
3051.50258	2.05959
3049.44908	2.05843
3047.39558	2.05540
3045.34208	2.05425
3043.28858	2.05531
3041.23508	2.05762
3039.18158	2.06100
3037.12808	2.06328
3035.07458	2.06545
3033.02107	2.06630
3030.96757	2.06277
3028.91407	2.05929
3026.86057	2.06012
3024.80707	2.06219
3022.75357	2.06232
3020.70007	2.06379
3018.64657	2.06877
3016.59307	2.07462
3014.53956	2.07860
3012.48606	2.07931
3010.43256	2.07740
3008.37906	2.07566
3006.32556	2.07620
3004.27206	2.07922
3002.21856	2.08246
3000.16506	2.08294
2998.11156	2.07987
2996.05806	2.07499
2994.00455	2.07278
2991.95105	2.07346
2989.89755	2.07298
2987.84405	2.07056
2985.79055	2.06705
2983.73705	2.06003
2981.68355	2.04951
2979.63005	2.04175
2977.57655	2.03883
2975.52304	2.04000
2973.46954	2.04420
2971.41604	2.04750
2969.36254	2.04889
2967.30904	2.04896
2965.25554	2.04825
2963.20204	2.04720
2961.14854	2.04693
2959.09504	2.04820
2957.04153	2.04832
2954.98803	2.04497
2952.93453	2.03963
2950.88103	2.03534
2948.82753	2.03400
2946.77403	2.03417
2944.72053	2.03393
2942.66703	2.03351
2940.61353	2.03100
2938.56003	2.02777
2936.50652	2.02789
2934.45302	2.02830
2932.39952	2.02642
2930.34602	2.02384
2928.29252	2.02154
2926.23902	2.01934
2924.18552	2.01636
2922.13202	2.01229
2920.07852	2.00722
2918.02501	2.00259
2915.97151	1.99985
2913.91801	2.00068
2911.86451	2.00689
2909.81101	2.01472
2907.75751	2.01778
2905.70401	2.01699
2903.65051	2.01732
2901.59701	2.01993
2899.54351	2.02241
2897.49000	2.02241
2895.43650	2.02070
2893.38300	2.01918
2891.32950	2.02000
2889.27600	2.02296
2887.22250	2.02578
2885.16900	2.02828
2883.11550	2.03007
2881.06200	2.03046
2879.00849	2.02967
2876.95499	2.02799
2874.90149	2.02646
2872.84799	2.02652
2870.79449	2.02709
2868.74099	2.02670
2866.68749	2.02748
2864.63399	2.03001
2862.58049	2.03162
2860.52698	2.03163
2858.47348	2.03061
2856.41998	2.02804
2854.36648	2.02464
2852.31298	2.02000
2850.25948	2.01421
2848.20598	2.01174
2846.15248	2.01380
2844.09898	2.01723
2842.04548	2.02066
2839.99197	2.02447
2837.93847	2.02802
2835.88497	2.03010
2833.83147	2.03051
2831.77797	2.02924
2829.72447	2.02664
2827.67097	2.02490
2825.61747	2.02616
2823.56397	2.02879
2821.51046	2.02974
2819.45696	2.03038
2817.40346	2.03198
2815.34996	2.03320
2813.29646	2.03411
2811.24296	2.03312
2809.18946	2.03077
2807.13596	2.03021
2805.08246	2.03022
2803.02895	2.02957
2800.97545	2.02910
2798.92195	2.02857
2796.86845	2.02697
2794.81495	2.02674
2792.76145	2.02989
2790.70795	2.03219
2788.65445	2.03030
2786.60095	2.02655
2784.54745	2.02621
2782.49394	2.02977
2780.44044	2.03159
2778.38694	2.02963
2776.33344	2.02741
2774.27994	2.02728
2772.22644	2.02874
2770.17294	2.03165
2768.11944	2.03417
2766.06594	2.03391
2764.01243	2.03319
2761.95893	2.03346
2759.90543	2.03293
2757.85193	2.03134
2755.79843	2.02918
2753.74493	2.02712
2751.69143	2.02620
2749.63793	2.02699
2747.58443	2.02943
2745.53093	2.03110
2743.47742	2.03074
2741.42392	2.03054
2739.37042	2.03019
2737.31692	2.02734
2735.26342	2.02369
2733.20992	2.02263
2731.15642	2.02351
2729.10292	2.02508
2727.04942	2.02668
2724.99591	2.02801
2722.94241	2.03082
2720.88891	2.03348
2718.83541	2.03306
2716.78191	2.03099
2714.72841	2.03013
2712.67491	2.02918
2710.62141	2.02722
2708.56791	2.02843
2706.51440	2.03165
2704.46090	2.03294
2702.40740	2.03340
2700.35390	2.03355
2698.30040	2.03407
2696.24690	2.03381
2694.19340	2.03089
2692.13990	2.02958
2690.08640	2.03139
2688.03290	2.03303
2685.97939	2.03312
2683.92589	2.03133
2681.87239	2.03041
2679.81889	2.03095
2677.76539	2.03098
2675.71189	2.03174
2673.65839	2.03264
2671.60489	2.03186
2669.55139	2.03113
2667.49788	2.03084
2665.44438	2.02926
2663.39088	2.02784
2661.33738	2.02769
2659.28388	2.02890
2657.23038	2.03144
2655.17688	2.03178
2653.12338	2.02910
2651.06988	2.02676
2649.01637	2.02596
2646.96287	2.02725
2644.90937	2.03050
2642.85587	2.03226
2640.80237	2.03200
2638.74887	2.03261
2636.69537	2.03344
2634.64187	2.03246
2632.58837	2.02914
2630.53487	2.02622
2628.48136	2.02750
2626.42786	2.03033
2624.37436	2.03052
2622.32086	2.02981
2620.26736	2.03047
2618.21386	2.03295
2616.16036	2.03479
2614.10686	2.03309
2612.05336	2.03064
2609.99985	2.02926
2607.94635	2.02773
2605.89285	2.02819
2603.83935	2.02947
2601.78585	2.02809
2599.73235	2.02888
2597.67885	2.03199
2595.62535	2.03093
2593.57185	2.02860
2591.51835	2.02893
2589.46484	2.02930
2587.41134	2.02794
2585.35784	2.02629
2583.30434	2.02545
2581.25084	2.02526
2579.19734	2.02539
2577.14384	2.02529
2575.09034	2.02565
2573.03684	2.02737
2570.98333	2.02837
2568.92983	2.02764
2566.87633	2.02633
2564.82283	2.02559
2562.76933	2.02524
2560.71583	2.02399
2558.66233	2.02392
2556.60883	2.02661
2554.55533	2.03058
2552.50182	2.03210
2550.44832	2.03031
2548.39482	2.03037
2546.34132	2.03197
2544.28782	2.03094
2542.23432	2.02902
2540.18082	2.02926
2538.12732	2.02996
2536.07382	2.02912
2534.02032	2.02676
2531.96681	2.02420
2529.91331	2.02360
2527.85981	2.02461
2525.80631	2.02567
2523.75281	2.02761
2521.69931	2.03104
2519.64581	2.03287
2517.59231	2.03140
2515.53881	2.02993
2513.48530	2.03157
2511.43180	2.03449
2509.37830	2.03430
2507.32480	2.03210
2505.27130	2.03180
2503.21780	2.03331
2501.16430	2.03429
2499.11080	2.03294
2497.05730	2.03072
2495.00380	2.02973
2492.95029	2.02943
2490.89679	2.02996
2488.84329	2.03221
2486.78979	2.03407
2484.73629	2.03260
2482.68279	2.02972
2480.62929	2.02873
2478.57579	2.02961
2476.52229	2.03182
2474.46878	2.03504
2472.41528	2.03656
2470.36178	2.03521
2468.30828	2.03355
2466.25478	2.03318
2464.20128	2.03596
2462.14778	2.04032
2460.09428	2.04031
2458.04078	2.03768
2455.98727	2.03689
2453.93377	2.03717
2451.88027	2.03720
2449.82677	2.03599
2447.77327	2.03470
2445.71977	2.03525
2443.66627	2.03530
2441.61277	2.03435
2439.55927	2.03589
2437.50577	2.04042
2435.45226	2.04362
2433.39876	2.04112
2431.34526	2.03537
2429.29176	2.03306
2427.23826	2.03377
2425.18476	2.03293
2423.13126	2.03271
2421.07776	2.03457
2419.02426	2.03533
2416.97075	2.03364
2414.91725	2.03175
2412.86375	2.03270
2410.81025	2.03573
2408.75675	2.03970
2406.70325	2.04299
2404.64975	2.04270
2402.59625	2.04000
2400.54275	2.03696
2398.48924	2.03463
2396.43574	2.03349
2394.38224	2.03235
2392.32874	2.03228
2390.27524	2.03386
2388.22174	2.03376
2386.16824	2.03230
2384.11474	2.03283
2382.06124	2.03289
2380.00774	2.02871
2377.95423	2.02378
2375.90073	2.02288
2373.84723	2.02348
2371.79373	2.02129
2369.74023	2.02016
2367.68673	2.02538
2365.63323	2.02994
2363.57973	2.02969
2361.52623	2.03243
2359.47272	2.03489
2357.41922	2.03480
2355.36572	2.03964
2353.31222	2.04734
2351.25872	2.04804
2349.20522	2.03762
2347.15172	2.02438
2345.09822	2.02194
2343.04472	2.03070
2340.99122	2.03756
2338.93771	2.03912
2336.88421	2.03827
2334.83071	2.03865
2332.77721	2.03700
2330.72371	2.03206
2328.67021	2.02950
2326.61671	2.02837
2324.56321	2.02567
2322.50971	2.02310
2320.45620	2.02417
2318.40270	2.02931
2316.34920	2.03353
2314.29570	2.03299
2312.24220	2.03038
2310.18870	2.03011
2308.13520	2.03021
2306.08170	2.02872
2304.02820	2.02916
2301.97469	2.03040
2299.92119	2.02862
2297.86769	2.02601
2295.81419	2.02585
2293.76069	2.02706
2291.70719	2.02736
2289.65369	2.02758
2287.60019	2.02749
2285.54669	2.02585
2283.49319	2.02468
2281.43968	2.02484
2279.38618	2.02528
2277.33268	2.02590
2275.27918	2.02645
2273.22568	2.02534
2271.17218	2.02267
2269.11868	2.02166
2267.06518	2.02261
2265.01168	2.02269
2262.95817	2.02193
2260.90467	2.02071
2258.85117	2.01901
2256.79767	2.01933
2254.74417	2.02197
2252.69067	2.02278
2250.63717	2.02090
2248.58367	2.01973
2246.53017	2.02105
2244.47667	2.02412
2242.42316	2.02590
2240.36966	2.02418
2238.31616	2.02132
2236.26266	2.01974
2234.20916	2.01869
2232.15566	2.01716
2230.10216	2.01664
2228.04866	2.01873
2225.99516	2.02030
2223.94165	2.01927
2221.88815	2.01760
2219.83465	2.01597
2217.78115	2.01607
2215.72765	2.01870
2213.67415	2.02163
2211.62065	2.02337
2209.56715	2.02344
2207.51365	2.02191
2205.46014	2.02028
2203.40664	2.01901
2201.35314	2.01783
2199.29964	2.01829
2197.24614	2.02023
2195.19264	2.02271
2193.13914	2.02486
2191.08564	2.02479
2189.03214	2.02269
2186.97864	2.02043
2184.92513	2.01908
2182.87163	2.01890
2180.81813	2.01994
2178.76463	2.02005
2176.71113	2.01780
2174.65763	2.01577
2172.60413	2.01585
2170.55063	2.01696
2168.49713	2.01852
2166.44362	2.01963
2164.39012	2.01927
2162.33662	2.01932
2160.28312	2.02004
2158.22962	2.02061
2156.17612	2.02164
2154.12262	2.02335
2152.06912	2.02425
2150.01562	2.02299
2147.96211	2.02102
2145.90861	2.02030
2143.85511	2.02084
2141.80161	2.02031
2139.74811	2.01826
2137.69461	2.01651
2135.64111	2.01599
2133.58761	2.01723
2131.53411	2.01913
2129.48061	2.01938
2127.42710	2.01838
2125.37360	2.01939
2123.32010	2.02146
2121.26660	2.02249
2119.21310	2.02418
2117.15960	2.02519
2115.10610	2.02359
2113.05260	2.02212
2110.99910	2.02253
2108.94559	2.02340
2106.89209	2.02510
2104.83859	2.02731
2102.78509	2.02564
2100.73159	2.02115
2098.67809	2.01934
2096.62459	2.01940
2094.57109	2.01970
2092.51759	2.02153
2090.46409	2.02381
2088.41058	2.02557
2086.35708	2.02658
2084.30358	2.02589
2082.25008	2.02482
2080.19658	2.02457
2078.14308	2.02449
2076.08958	2.02335
2074.03608	2.02138
2071.98258	2.02067
2069.92907	2.02144
2067.87557	2.02302
2065.82207	2.02442
2063.76857	2.02486
2061.71507	2.02529
2059.66157	2.02567
2057.60807	2.02372
2055.55457	2.01947
2053.50107	2.01763
2051.44756	2.01976
2049.39406	2.02202
2047.34056	2.02239
2045.28706	2.02251
2043.23356	2.02369
2041.18006	2.02451
2039.12656	2.02370
2037.07306	2.02262
2035.01956	2.02273
2032.96606	2.02295
2030.91255	2.02249
2028.85905	2.02325
2026.80555	2.02472
2024.75205	2.02362
2022.69855	2.02162
2020.64505	2.02162
2018.59155	2.02197
2016.53805	2.02260
2014.48455	2.02364
2012.43104	2.02316
2010.37754	2.02302
2008.32404	2.02522
2006.27054	2.02762
2004.21704	2.02799
2002.16354	2.02627
2000.11004	2.02410
1998.05654	2.02324
1996.00304	2.02384
1993.94953	2.02479
1991.89603	2.02555
1989.84253	2.02483
1987.78903	2.02333
1985.73553	2.02412
1983.68203	2.02581
1981.62853	2.02591
1979.57503	2.02413
1977.52153	2.02295
1975.46803	2.02565
1973.41452	2.02874
1971.36102	2.02814
1969.30752	2.02555
1967.25402	2.02409
1965.20052	2.02517
1963.14702	2.02655
1961.09352	2.02742
1959.04002	2.02806
1956.98652	2.02718
1954.93301	2.02543
1952.87951	2.02486
1950.82601	2.02572
1948.77251	2.02650
1946.71901	2.02717
1944.66551	2.02786
1942.61201	2.02996
1940.55851	2.03307
1938.50501	2.03177
1936.45151	2.02838
1934.39800	2.02818
1932.34450	2.02947
1930.29100	2.02947
1928.23750	2.02848
1926.18400	2.02767
1924.13050	2.02910
1922.07700	2.03187
1920.02350	2.03034
1917.97000	2.02842
1915.91649	2.03164
1913.86299	2.03418
1911.80949	2.03369
1909.75599	2.03298
1907.70249	2.03322
1905.64899	2.03466
1903.59549	2.03612
1901.54199	2.03524
1899.48849	2.03282
1897.43498	2.03138
1895.38148	2.03190
1893.32798	2.03295
1891.27448	2.03285
1889.22098	2.03445
1887.16748	2.03686
1885.11398	2.03592
1883.06048	2.03506
1881.00698	2.03785
1878.95348	2.04042
1876.89997	2.03851
1874.84647	2.03525
1872.79297	2.03386
1870.73947	2.03327
1868.68597	2.03726
1866.63247	2.04559
1864.57897	2.04735
1862.52547	2.04350
1860.47197	2.04166
1858.41846	2.04396
1856.36496	2.04615
1854.31146	2.04440
1852.25796	2.04233
1850.20446	2.04345
1848.15096	2.04450
1846.09746	2.04412
1844.04396	2.04836
1841.99046	2.05283
1839.93696	2.05021
1837.88345	2.04736
1835.82995	2.04965
1833.77645	2.05103
1831.72295	2.04603
1829.66945	2.04374
1827.61595	2.04775
1825.56245	2.05249
1823.50895	2.05907
1821.45545	2.06275
1819.40194	2.06235
1817.34844	2.06140
1815.29494	2.06062
1813.24144	2.06120
1811.18794	2.06466
1809.13444	2.06892
1807.08094	2.07134
1805.02744	2.07128
1802.97394	2.06975
1800.92043	2.07170
1798.86693	2.07752
1796.81343	2.08002
1794.75993	2.07764
1792.70643	2.08022
1790.65293	2.09278
1788.59943	2.09859
1786.54593	2.09652
1784.49243	2.09611
1782.43893	2.09674
1780.38542	2.09914
1778.33192	2.10338
1776.27842	2.10278
1774.22492	2.09900
1772.17142	2.10355
1770.11792	2.11391
1768.06442	2.11843
1766.01092	2.12141
1763.95742	2.12444
1761.90391	2.12873
1759.85041	2.13121
1757.79691	2.12841
1755.74341	2.12388
1753.68991	2.11084
1751.63641	2.08697
1749.58291	2.05839
1747.52941	2.02081
1745.47591	1.97302
1743.42240	1.92322
1741.36890	1.87936
1739.31540	1.84512
1737.26190	1.81680
1735.20840	1.79055
1733.15490	1.77543
1731.10140	1.76642
1729.04790	1.75247
1726.99440	1.73834
1724.94090	1.72713
1722.88739	1.72066
1720.83389	1.71495
1718.78039	1.71393
1716.72689	1.73727
1714.67339	1.77196
1712.61989	1.79316
1710.56639	1.80709
1708.51289	1.81990
1706.45939	1.83664
1704.40588	1.85481
1702.35238	1.86397
1700.29888	1.87795
1698.24538	1.90019
1696.19188	1.91553
1694.13838	1.92720
1692.08488	1.92845
1690.03138	1.92675
1687.97788	1.92517
1685.92438	1.92152
1683.87087	1.93641
1681.81737	1.95689
1679.76387	1.95704
1677.71037	1.95119
1675.65687	1.95169
1673.60337	1.95884
1671.54987	1.96162
1669.49637	1.96735
1667.44287	1.97557
1665.38936	1.97435
1663.33586	1.97356
1661.28236	1.97951
1659.22886	1.98108
1657.17536	1.97316
1655.12186	1.96167
1653.06836	1.97488
1651.01486	1.99871
1648.96136	1.99378
1646.90785	1.99155
1644.85435	2.00222
1642.80085	2.00213
1640.74735	1.99369
1638.69385	1.98531
1636.64035	1.98733
1634.58685	2.00563
1632.53335	2.01130
1630.47985	2.00410
1628.42635	2.00010
1626.37284	2.00086
1624.31934	2.00096
1622.26584	2.00205
1620.21234	1.99918
1618.15884	1.99579
1616.10534	2.00604
1614.05184	2.01447
1611.99834	2.01053
1609.94484	2.00726
1607.89133	2.00953
1605.83783	2.01280
1603.78433	2.01583
1601.73083	2.02071
1599.67733	2.02436
1597.62383	2.02461
1595.57033	2.02509
1593.51683	2.02829
1591.46333	2.03026
1589.40982	2.02951
1587.35632	2.03016
1585.30282	2.03164
1583.24932	2.03294
1581.19582	2.03419
1579.14232	2.03209
1577.08882	2.03315
1575.03532	2.04554
1572.98182	2.04880
1570.92832	2.04635
1568.87481	2.05412
1566.82131	2.05868
1564.76781	2.05404
1562.71431	2.04567
1560.66081	2.03743
1558.60731	2.05871
1556.55381	2.08263
1554.50031	2.07698
1552.44681	2.07066
1550.39330	2.07015
1548.33980	2.07248
1546.28630	2.07001
1544.23280	2.06486
1542.17930	2.06607
1540.12580	2.08241
1538.07230	2.09489
1536.01880	2.08531
1533.96530	2.07615
1531.91180	2.08113
1529.85829	2.08528
1527.80479	2.08626
1525.75129	2.08893
1523.69779	2.08856
1521.64429	2.09299
1519.59079	2.10192
1517.53729	2.10306
1515.48379	2.10257
1513.43029	2.10379
1511.37678	2.10487
1509.32328	2.10299
1507.26978	2.10754
1505.21628	2.12461
1503.16278	2.12705
1501.10928	2.12380
1499.05578	2.12609
1497.00228	2.13848
1494.94878	2.14843
1492.89527	2.14375
1490.84177	2.14194
1488.78827	2.15618
1486.73477	2.16511
1484.68127	2.16199
1482.62777	2.15766
1480.57427	2.15472
1478.52077	2.15209
1476.46727	2.15259
1474.41377	2.16111
1472.36026	2.17814
1470.30676	2.18731
1468.25326	2.18466
1466.19976	2.18530
1464.14626	2.19369
1462.09276	2.19288
1460.03926	2.18003
1457.98576	2.17407
1455.93226	2.18591
1453.87875	2.18114
1451.82525	2.16208
1449.77175	2.14280
1447.71825	2.12364
1445.66475	2.10413
1443.61125	2.08533
1441.55775	2.06707
1439.50425	2.05065
1437.45075	2.03941
1435.39725	2.03282
1433.34374	2.02082
1431.29024	2.00551
1429.23674	1.99364
1427.18324	1.98347
1425.12974	1.97291
1423.07624	1.96209
1421.02274	1.94844
1418.96924	1.93766
1416.91574	1.93237
1414.86223	1.92070
1412.80873	1.90434
1410.75523	1.88890
1408.70173	1.87379
1406.64823	1.85746
1404.59473	1.84219
1402.54123	1.82862
1400.48773	1.81486
1398.43423	1.80328
1396.38072	1.79504
1394.32722	1.78891
1392.27372	1.78250
1390.22022	1.77523
1388.16672	1.77228
1386.11322	1.77644
1384.05972	1.78173
1382.00622	1.78550
1379.95272	1.78889
1377.89922	1.79182
1375.84571	1.79535
1373.79221	1.80032
1371.73871	1.80280
1369.68521	1.80032
1367.63171	1.79617
1365.57821	1.79232
1363.52471	1.79178
1361.47121	1.79615
1359.41771	1.79810
1357.36420	1.79581
1355.31070	1.79337
1353.25720	1.79178
1351.20370	1.79064
1349.15020	1.79009
1347.09670	1.78900
1345.04320	1.78758
1342.98970	1.78612
1340.93620	1.78494
1338.88269	1.78607
1336.82919	1.78834
1334.77569	1.78949
1332.72219	1.79044
1330.66869	1.79268
1328.61519	1.79524
1326.56169	1.79600
1324.50819	1.79586
1322.45469	1.79659
1320.40119	1.79764
1318.34768	1.79922
1316.29418	1.80050
1314.24068	1.79979
1312.18718	1.79805
1310.13368	1.79585
1308.08018	1.79336
1306.02668	1.79125
1303.97318	1.78961
1301.91968	1.78830
1299.86617	1.78749
1297.81267	1.78719
1295.75917	1.78676
1293.70567	1.78546
1291.65217	1.78322
1289.59867	1.78143
1287.54517	1.78137
1285.49167	1.78089
1283.43817	1.77795
1281.38467	1.77461
1279.33116	1.77251
1277.27766	1.77108
1275.22416	1.76928
1273.17066	1.76725
1271.11716	1.76608
1269.06366	1.76576
1267.01016	1.76663
1264.95666	1.76886
1262.90316	1.77043
1260.84965	1.76990
1258.79615	1.76874
1256.74265	1.76830
1254.68915	1.76794
1252.63565	1.76700
1250.58215	1.76490
1248.52865	1.76114
1246.47515	1.75674
1244.42165	1.75359
1242.36814	1.75172
1240.31464	1.75024
1238.26114	1.74938
1236.20764	1.74914
1234.15414	1.74947
1232.10064	1.75044
1230.04714	1.75171
1227.99364	1.75466
1225.94014	1.76042
1223.88664	1.76699
1221.83313	1.77238
1219.77963	1.77565
1217.72613	1.77724
1215.67263	1.77905
1213.61913	1.78115
1211.56563	1.78306
1209.51213	1.78287
1207.45863	1.77952
1205.40513	1.77521
1203.35162	1.76957
1201.29812	1.76203
1199.24462	1.75416
1197.19112	1.74733
1195.13762	1.74187
1193.08412	1.73768
1191.03062	1.73537
1188.97712	1.73437
1186.92362	1.73292
1184.87012	1.72997
1182.81661	1.72582
1180.76311	1.72036
1178.70961	1.71281
1176.65611	1.70374
1174.60261	1.69470
1172.54911	1.68671
1170.49561	1.68029
1168.44211	1.67614
1166.38861	1.67352
1164.33510	1.67105
1162.28160	1.66960
1160.22810	1.67012
1158.17460	1.67159
1156.12110	1.67310
1154.06760	1.67382
1152.01410	1.67213
1149.96060	1.66798
1147.90710	1.66339
1145.85359	1.66045
1143.80009	1.65945
1141.74659	1.66075
1139.69309	1.66501
1137.63959	1.67147
1135.58609	1.67866
1133.53259	1.68548
1131.47909	1.69286
1129.42559	1.70201
1127.37209	1.71158
1125.31858	1.72010
1123.26508	1.72783
1121.21158	1.73364
1119.15808	1.73614
1117.10458	1.73660
1115.05108	1.73628
1112.99758	1.73689
1110.94408	1.74106
1108.89058	1.74790
1106.83707	1.75394
1104.78357	1.75759
1102.73007	1.76026
1100.67657	1.76256
1098.62307	1.76327
1096.56957	1.76364
1094.51607	1.76475
1092.46257	1.76533
1090.40907	1.76607
1088.35556	1.76910
1086.30206	1.77391
1084.24856	1.77726
1082.19506	1.77792
1080.14156	1.77915
1078.08806	1.78238
1076.03456	1.78377
1073.98106	1.78141
1071.92756	1.77813
1069.87406	1.77623
1067.82055	1.77540
1065.76705	1.77508
1063.71355	1.77344
1061.66005	1.77001
1059.60655	1.76870
1057.55305	1.77032
1055.49955	1.77231
1053.44605	1.77441
1051.39255	1.77706
1049.33904	1.78052
1047.28554	1.78315
1045.23204	1.77924
1043.17854	1.76772
1041.12504	1.75607
1039.07154	1.74754
1037.01804	1.73924
1034.96454	1.72933
1032.91104	1.71719
1030.85754	1.70460
1028.80403	1.69449
1026.75053	1.68686
1024.69703	1.68155
1022.64353	1.68086
1020.59003	1.68563
1018.53653	1.69195
1016.48303	1.69698
1014.42953	1.70267
1012.37603	1.70935
1010.32252	1.71520
1008.26902	1.72049
1006.21552	1.72600
1004.16202	1.73149
1002.10852	1.73510
1000.05502	1.73587
998.00152	1.73641
995.94802	1.73751
993.89452	1.73793
991.84101	1.73837
989.78751	1.73937
987.73401	1.74085
985.68051	1.74203
983.62701	1.74232
981.57351	1.74289
979.52001	1.74324
977.46651	1.74207
975.41301	1.74187
973.35951	1.74418
971.30600	1.74664
969.25250	1.74726
967.19900	1.74552
965.14550	1.74249
963.09200	1.74078
961.03850	1.74232
958.98500	1.74572
956.93150	1.74818
954.87800	1.74981
952.82449	1.75106
950.77099	1.75162
948.71749	1.75258
946.66399	1.75378
944.61049	1.75380
942.55699	1.75354
940.50349	1.75409
938.44999	1.75333
936.39649	1.75146
934.34298	1.75236
932.28948	1.75528
930.23598	1.75650
928.18248	1.75689
926.12898	1.75870
924.07548	1.76092
922.02198	1.76232
919.96848	1.76311
917.91498	1.76312
915.86148	1.76258
913.80797	1.76196
911.75447	1.76133
909.70097	1.76182
907.64747	1.76323
905.59397	1.76445
903.54047	1.76598
901.48697	1.76689
899.43347	1.76670
897.37997	1.76723
895.32646	1.76747
893.27296	1.76601
891.21946	1.76462
889.16596	1.76452
887.11246	1.76441
885.05896	1.76221
883.00546	1.75891
880.95196	1.75686
878.89846	1.75720
876.84496	1.75882
874.79145	1.75759
872.73795	1.75400
870.68445	1.75172
868.63095	1.75047
866.57745	1.74875
864.52395	1.74629
862.47045	1.74408
860.41695	1.74391
858.36345	1.74613
856.30994	1.74882
854.25644	1.75150
852.20294	1.75464
850.14944	1.75558
848.09594	1.75474
846.04244	1.75641
843.98894	1.75850
841.93544	1.75540
839.88194	1.75078
837.82843	1.75124
835.77493	1.75547
833.72143	1.76035
831.66793	1.76141
829.61443	1.75857
827.56093	1.75784
825.50743	1.75807
823.45393	1.75806
821.40043	1.76047
819.34693	1.76219
817.29342	1.76069
815.23992	1.76159
813.18642	1.76727
811.13292	1.77255
809.07942	1.77365
807.02592	1.77136
804.97242	1.77057
802.91892	1.77425
800.86542	1.77867
798.81191	1.78118
796.75841	1.78291
794.70491	1.78270
792.65141	1.77903
790.59791	1.77476
788.54441	1.77604
786.49091	1.78147
784.43741	1.78236
782.38391	1.77875
780.33041	1.77643
778.27690	1.77711
776.22340	1.77793
774.16990	1.77717
772.11640	1.77614
770.06290	1.77299
768.00940	1.76816
765.95590	1.76690
763.90240	1.76919
761.84890	1.76765
759.79539	1.76080
757.74189	1.75588
755.68839	1.75543
753.63489	1.75596
751.58139	1.75636
749.52789	1.75740
747.47439	1.75895
745.42089	1.76175
743.36739	1.76521
741.31388	1.76908
739.26038	1.77293
737.20688	1.77481
735.15338	1.77740
733.09988	1.78124
731.04638	1.78047
728.99288	1.77643
726.93938	1.77595
724.88588	1.78028
722.83238	1.78544
720.77887	1.78667
718.72537	1.78830
716.67187	1.79674
714.61837	1.80902
712.56487	1.82107
710.51137	1.83284
708.45787	1.84511
706.40437	1.85376
704.35087	1.85784
702.29736	1.86648
700.24386	1.88635
698.19036	1.92092
696.13686	1.96672
694.08336	1.98538
692.02986	1.95065
689.97636	1.91175
687.92286	1.90906
685.86936	1.89563
683.81585	1.79992
681.76235	1.67565
679.70885	1.59786
677.65535	1.57177
675.60185	1.57550
673.54835	1.59138
671.49485	1.60744
669.44135	1.62355
667.38785	1.64216
665.33435	1.64863
663.28084	1.64911
661.22734	1.65247
659.17384	1.65805
657.12034	1.66578
655.06684	1.67373
653.01334	1.67671
650.95984	1.67893
648.90634	1.68488
646.85284	1.68660
644.79933	1.68592
642.74583	1.68929
640.69233	1.69340
638.63883	1.69626
636.58533	1.69782
634.53183	1.69572
632.47833	1.69004
630.42483	1.68629
628.37133	1.68623
626.31783	1.68572
624.26432	1.68408
622.21082	1.68407
620.15732	1.68451
618.10382	1.68542
616.05032	1.69047
613.99682	1.69506
611.94332	1.69314
609.88982	1.68979
607.83632	1.69032
605.78281	1.69429
603.72931	1.69720
601.67581	1.69310
599.62231	1.68402
597.56881	1.67621
595.51531	1.67148
593.46181	1.66954
591.40831	1.67078
589.35481	1.67284
587.30130	1.67376
585.24780	1.67590
583.19430	1.68010
581.14080	1.68368
579.08730	1.68542
577.03380	1.68637
574.98030	1.68430
572.92680	1.67986
570.87330	1.68105
568.81980	1.68899
566.76629	1.69458
564.71279	1.69381
562.65929	1.69058
560.60579	1.68790
558.55229	1.68780
556.49879	1.69166
554.44529	1.69771
552.39179	1.70142
550.33829	1.69917
548.28478	1.69591
546.23128	1.69774
544.17778	1.70254
542.12428	1.70829
540.07078	1.71204
538.01728	1.71132
535.96378	1.70584
533.91028	1.69832
531.85678	1.69804
529.80327	1.70907
527.74977	1.72261
525.69627	1.72954
523.64277	1.73043
521.58927	1.72779
519.53577	1.72385
517.48227	1.72402
515.42877	1.72487
513.37527	1.72184
511.32177	1.72211
509.26826	1.72917
507.21476	1.73653
505.16126	1.73783
503.10776	1.74090
501.05426	1.74966
499.00076	1.74798
496.94726	1.73508
494.89376	1.72390
492.84026	1.72350
490.78675	1.73121
488.73325	1.73918
486.67975	1.74799
484.62625	1.75976
482.57275	1.76701
480.51925	1.76539
478.46575	1.75913
476.41225	1.75142
474.35875	1.74642
472.30525	1.74912
470.25174	1.75996
468.19824	1.76895
466.14474	1.77005
464.09124	1.76415
462.03774	1.75739
459.98424	1.76074
457.93074	1.77259
455.87724	1.77688
453.82374	1.77396
451.77023	1.77210
449.71673	1.77821
447.66323	1.79566
445.60973	1.80838
443.55623	1.81282
441.50273	1.82204
439.44923	1.82731
437.39573	1.81782
435.34223	1.80713
433.28872	1.80758
431.23522	1.80862
429.18172	1.80735
427.12822	1.81078
425.07472	1.81687
423.02122	1.81755
420.96772	1.81368
418.91422	1.82864
416.86072	1.83334
414.80722	1.80291
412.75371	1.77901
410.70021	1.77637
408.64671	1.77672
406.59321	1.77107
404.53971	1.76767
402.48621	1.77524
400.43271	1.79389
398.37921	1.80610
