5996.22311	1.36640
5994.16961	1.36874
5992.11611	1.36243
5990.06261	1.35472
5988.00911	1.35505
5985.95561	1.35799
5983.90211	1.35840
5981.84860	1.35749
5979.79510	1.35929
5977.74160	1.36445
5975.68810	1.36636
5973.63460	1.36099
5971.58110	1.35629
5969.52760	1.35995
5967.47410	1.36693
5965.42060	1.36985
5963.36710	1.36717
5961.31359	1.35972
5959.26009	1.35133
5957.20659	1.35063
5955.15309	1.36085
5953.09959	1.37437
5951.04609	1.38115
5948.99259	1.37707
5946.93909	1.36875
5944.88559	1.36681
5942.83208	1.36581
5940.77858	1.36037
5938.72508	1.36046
5936.67158	1.36457
5934.61808	1.36480
5932.56458	1.36245
5930.51108	1.36003
5928.45758	1.35924
5926.40408	1.35911
5924.35058	1.35671
5922.29707	1.35621
5920.24357	1.36106
5918.19007	1.36555
5916.13657	1.36849
5914.08307	1.37312
5912.02957	1.37868
5909.97607	1.38134
5907.92257	1.37974
5905.86907	1.37460
5903.81556	1.37002
5901.76206	1.37145
5899.70856	1.37230
5897.65506	1.36976
5895.60156	1.37290
5893.54806	1.38080
5891.49456	1.38161
5889.44106	1.37624
5887.38756	1.37523
5885.33405	1.37742
5883.28055	1.37762
5881.22705	1.37910
5879.17355	1.38187
5877.12005	1.37946
5875.06655	1.37548
5873.01305	1.37481
5870.95955	1.37548
5868.90605	1.37846
5866.85255	1.37934
5864.79904	1.37623
5862.74554	1.37279
5860.69204	1.36961
5858.63854	1.37058
5856.58504	1.37453
5854.53154	1.37700
5852.47804	1.37573
5850.42454	1.37262
5848.37104	1.37482
5846.31753	1.38033
5844.26403	1.38483
5842.21053	1.38618
5840.15703	1.38528
5838.10353	1.38734
5836.05003	1.38873
5833.99653	1.38806
5831.94303	1.38999
5829.88953	1.39212
5827.83602	1.38906
5825.78252	1.38202
5823.72902	1.37862
5821.67552	1.38286
5819.62202	1.38933
5817.56852	1.38904
5815.51502	1.38377
5813.46152	1.38324
5811.40802	1.38543
5809.35452	1.38450
5807.30101	1.38894
5805.24751	1.40035
5803.19401	1.40403
5801.14051	1.39587
5799.08701	1.38537
5797.03351	1.38118
5794.98001	1.38818
5792.92651	1.40015
5790.87301	1.40574
5788.81950	1.40223
5786.76600	1.39750
5784.71250	1.40126
5782.65900	1.40544
5780.60550	1.39765
5778.55200	1.38643
5776.49850	1.38421
5774.44500	1.38986
5772.39150	1.39315
5770.33800	1.38878
5768.28449	1.38490
5766.23099	1.38807
5764.17749	1.39316
5762.12399	1.39525
5760.07049	1.39410
5758.01699	1.39094
5755.96349	1.39136
5753.90999	1.39630
5751.85649	1.39542
5749.80298	1.38663
5747.74948	1.38240
5745.69598	1.38622
5743.64248	1.38897
5741.58898	1.38690
5739.53548	1.38478
5737.48198	1.38500
5735.42848	1.38308
5733.37498	1.37717
5731.32147	1.37327
5729.26797	1.37717
5727.21447	1.38580
5725.16097	1.38808
5723.10747	1.38216
5721.05397	1.37691
5719.00047	1.37654
5716.94697	1.38233
5714.89347	1.39150
5712.83997	1.39516
5710.78646	1.39240
5708.73296	1.38851
5706.67946	1.38637
5704.62596	1.38658
5702.57246	1.38528
5700.51896	1.38062
5698.46546	1.37733
5696.41196	1.37763
5694.35846	1.37891
5692.30495	1.37958
5690.25145	1.38047
5688.19795	1.38281
5686.14445	1.38343
5684.09095	1.38176
5682.03745	1.38368
5679.98395	1.38633
5677.93045	1.38704
5675.87695	1.38961
5673.82345	1.39079
5671.76994	1.38936
5669.71644	1.39225
5667.66294	1.39774
5665.60944	1.39849
5663.55594	1.39749
5661.50244	1.39491
5659.44894	1.38784
5657.39544	1.38345
5655.34194	1.38315
5653.28843	1.38072
5651.23493	1.37817
5649.18143	1.37888
5647.12793	1.37931
5645.07443	1.37736
5643.02093	1.37729
5640.96743	1.38093
5638.91393	1.38329
5636.86043	1.38285
5634.80692	1.38637
5632.75342	1.39265
5630.69992	1.39136
5628.64642	1.38536
5626.59292	1.38133
5624.53942	1.37760
5622.48592	1.37580
5620.43242	1.37684
5618.37892	1.38033
5616.32542	1.38564
5614.27191	1.38647
5612.21841	1.38211
5610.16491	1.37846
5608.11141	1.37619
5606.05791	1.37573
5604.00441	1.37899
5601.95091	1.38176
5599.89741	1.38075
5597.84391	1.37878
5595.79040	1.37908
5593.73690	1.38276
5591.68340	1.38493
5589.62990	1.38128
5587.57640	1.37590
5585.52290	1.37502
5583.46940	1.37703
5581.41590	1.37575
5579.36240	1.37363
5577.30889	1.37571
5575.25539	1.37957
5573.20189	1.38142
5571.14839	1.38098
5569.09489	1.37949
5567.04139	1.37682
5564.98789	1.37355
5562.93439	1.37271
5560.88089	1.37506
5558.82739	1.37652
5556.77388	1.37458
5554.72038	1.37264
5552.66688	1.37341
5550.61338	1.37399
5548.55988	1.37427
5546.50638	1.37761
5544.45288	1.38352
5542.39938	1.38823
5540.34588	1.38780
5538.29237	1.38416
5536.23887	1.38216
5534.18537	1.38145
5532.13187	1.38074
5530.07837	1.37926
5528.02487	1.37712
5525.97137	1.37813
5523.91787	1.38179
5521.86437	1.38265
5519.81087	1.38049
5517.75736	1.37741
5515.70386	1.37434
5513.65036	1.37392
5511.59686	1.37684
5509.54336	1.38041
5507.48986	1.38279
5505.43636	1.38319
5503.38286	1.38105
5501.32936	1.37877
5499.27585	1.37785
5497.22235	1.37668
5495.16885	1.37604
5493.11535	1.37833
5491.06185	1.38046
5489.00835	1.37829
5486.95485	1.37725
5484.90135	1.38174
5482.84785	1.38548
5480.79434	1.38279
5478.74084	1.37731
5476.68734	1.37499
5474.63384	1.37703
5472.58034	1.38030
5470.52684	1.38269
5468.47334	1.38468
5466.41984	1.38492
5464.36634	1.38096
5462.31284	1.37587
5460.25933	1.37455
5458.20583	1.37662
5456.15233	1.37916
5454.09883	1.38096
5452.04533	1.38034
5449.99183	1.37886
5447.93833	1.38053
5445.88483	1.38398
5443.83133	1.38324
5441.77782	1.37718
5439.72432	1.37436
5437.67082	1.37727
5435.61732	1.37861
5433.56382	1.37732
5431.51032	1.37750
5429.45682	1.37918
5427.40332	1.37941
5425.34982	1.37797
5423.29631	1.37625
5421.24281	1.37566
5419.18931	1.37639
5417.13581	1.37602
5415.08231	1.37641
5413.02881	1.38111
5410.97531	1.38528
5408.92181	1.38321
5406.86831	1.37821
5404.81481	1.37410
5402.76130	1.37198
5400.70780	1.37358
5398.65430	1.37641
5396.60080	1.37726
5394.54730	1.37905
5392.49380	1.38359
5390.44030	1.38733
5388.38680	1.38562
5386.33330	1.37871
5384.27979	1.37213
5382.22629	1.36848
5380.17279	1.36967
5378.11929	1.37592
5376.06579	1.37956
5374.01229	1.37742
5371.95879	1.37576
5369.90529	1.37584
5367.85179	1.37793
5365.79829	1.38292
5363.74478	1.38537
5361.69128	1.38378
5359.63778	1.38318
5357.58428	1.38326
5355.53078	1.38079
5353.47728	1.37636
5351.42378	1.37436
5349.37028	1.37531
5347.31678	1.37503
5345.26327	1.37267
5343.20977	1.37253
5341.15627	1.37710
5339.10277	1.38347
5337.04927	1.38527
5334.99577	1.38351
5332.94227	1.38333
5330.88877	1.38467
5328.83527	1.38740
5326.78176	1.38804
5324.72826	1.38503
5322.67476	1.38384
5320.62126	1.38418
5318.56776	1.38482
5316.51426	1.38688
5314.46076	1.38780
5312.40726	1.38752
5310.35376	1.38876
5308.30026	1.38892
5306.24675	1.38443
5304.19325	1.38067
5302.13975	1.38130
5300.08625	1.38399
5298.03275	1.38698
5295.97925	1.38784
5293.92575	1.38680
5291.87225	1.38577
5289.81875	1.38483
5287.76524	1.38440
5285.71174	1.38651
5283.65824	1.38972
5281.60474	1.38967
5279.55124	1.38720
5277.49774	1.38541
5275.44424	1.38640
5273.39074	1.38979
5271.33724	1.39114
5269.28374	1.39006
5267.23023	1.39091
5265.17673	1.39486
5263.12323	1.39926
5261.06973	1.39832
5259.01623	1.39385
5256.96273	1.39332
5254.90923	1.39519
5252.85573	1.39621
5250.80223	1.39712
5248.74872	1.39728
5246.69522	1.39752
5244.64172	1.39892
5242.58822	1.40177
5240.53472	1.40528
5238.48122	1.40687
5236.42772	1.40516
5234.37422	1.40235
5232.32072	1.40237
5230.26721	1.40307
5228.21371	1.40135
5226.16021	1.40209
5224.10671	1.40567
5222.05321	1.40611
5219.99971	1.40477
5217.94621	1.40457
5215.89271	1.40469
5213.83921	1.40514
5211.78571	1.40694
5209.73220	1.41064
5207.67870	1.41282
5205.62520	1.40965
5203.57170	1.40864
5201.51820	1.41352
5199.46470	1.41659
5197.41120	1.41380
5195.35770	1.40885
5193.30420	1.40796
5191.25069	1.41074
5189.19719	1.41264
5187.14369	1.41342
5185.09019	1.41369
5183.03669	1.41337
5180.98319	1.41227
5178.92969	1.41014
5176.87619	1.40924
5174.82269	1.41039
5172.76918	1.41156
5170.71568	1.41307
5168.66218	1.41514
5166.60868	1.41535
5164.55518	1.41417
5162.50168	1.41504
5160.44818	1.41760
5158.39468	1.41711
5156.34118	1.41353
5154.28768	1.41166
5152.23417	1.41217
5150.18067	1.41314
5148.12717	1.41364
5146.07367	1.41549
5144.02017	1.41903
5141.96667	1.41943
5139.91317	1.41539
5137.85967	1.41132
5135.80617	1.41078
5133.75266	1.41419
5131.69916	1.41795
5129.64566	1.41816
5127.59216	1.41658
5125.53866	1.41596
5123.48516	1.41589
5121.43166	1.41613
5119.37816	1.41610
5117.32466	1.41513
5115.27116	1.41319
5113.21765	1.41179
5111.16415	1.41303
5109.11065	1.41602
5107.05715	1.41808
5105.00365	1.41718
5102.95015	1.41519
5100.89665	1.41436
5098.84315	1.41191
5096.78965	1.40759
5094.73614	1.40593
5092.68264	1.40737
5090.62914	1.40898
5088.57564	1.41097
5086.52214	1.41429
5084.46864	1.41577
5082.41514	1.41494
5080.36164	1.41556
5078.30814	1.41650
5076.25463	1.41450
5074.20113	1.41159
5072.14763	1.41141
5070.09413	1.41297
5068.04063	1.41368
5065.98713	1.41485
5063.93363	1.41806
5061.88013	1.41908
5059.82663	1.41532
5057.77313	1.41124
5055.71962	1.40894
5053.66612	1.40849
5051.61262	1.40945
5049.55912	1.40925
5047.50562	1.40773
5045.45212	1.40775
5043.39862	1.41051
5041.34512	1.41294
5039.29162	1.41397
5037.23811	1.41514
5035.18461	1.41434
5033.13111	1.41182
5031.07761	1.41186
5029.02411	1.41413
5026.97061	1.41538
5024.91711	1.41457
5022.86361	1.41370
5020.81011	1.41492
5018.75661	1.41606
5016.70310	1.41591
5014.64960	1.41474
5012.59610	1.41174
5010.54260	1.40836
5008.48910	1.40662
5006.43560	1.40705
5004.38210	1.40866
5002.32860	1.40953
5000.27510	1.40904
4998.22159	1.40921
4996.16809	1.41033
4994.11459	1.41037
4992.06109	1.41013
4990.00759	1.40950
4987.95409	1.40865
4985.90059	1.40979
4983.84709	1.41167
4981.79359	1.41204
4979.74008	1.41101
4977.68658	1.40882
4975.63308	1.40600
4973.57958	1.40480
4971.52608	1.40614
4969.47258	1.40820
4967.41908	1.40939
4965.36558	1.41013
4963.31208	1.40991
4961.25858	1.40743
4959.20507	1.40443
4957.15157	1.40329
4955.09807	1.40382
4953.04457	1.40460
4950.99107	1.40503
4948.93757	1.40650
4946.88407	1.40833
4944.83057	1.40859
4942.77707	1.41003
4940.72356	1.41409
4938.67006	1.41575
4936.61656	1.41230
4934.56306	1.40755
4932.50956	1.40644
4930.45606	1.40940
4928.40256	1.41127
4926.34906	1.41050
4924.29556	1.40904
4922.24205	1.40762
4920.18855	1.40937
4918.13505	1.41181
4916.08155	1.40948
4914.02805	1.40685
4911.97455	1.40882
4909.92105	1.41284
4907.86755	1.41584
4905.81405	1.41561
4903.76055	1.41254
4901.70704	1.41107
4899.65354	1.41168
4897.60004	1.41239
4895.54654	1.41263
4893.49304	1.41128
4891.43954	1.40903
4889.38604	1.40787
4887.33254	1.40719
4885.27904	1.40518
4883.22553	1.40385
4881.17203	1.40564
4879.11853	1.40866
4877.06503	1.40979
4875.01153	1.41009
4872.95803	1.41159
4870.90453	1.41332
4868.85103	1.41369
4866.79753	1.41258
4864.74403	1.41153
4862.69052	1.40965
4860.63702	1.40859
4858.58352	1.41147
4856.53002	1.41367
4854.47652	1.41220
4852.42302	1.41155
4850.36952	1.41315
4848.31602	1.41373
4846.26252	1.41267
4844.20901	1.41200
4842.15551	1.41179
4840.10201	1.41160
4838.04851	1.41320
4835.99501	1.41611
4833.94151	1.41664
4831.88801	1.41317
4829.83451	1.40867
4827.78101	1.40753
4825.72750	1.40892
4823.67400	1.41068
4821.62050	1.41217
4819.56700	1.41173
4817.51350	1.41146
4815.46000	1.41307
4813.40650	1.41472
4811.35300	1.41518
4809.29950	1.41408
4807.24600	1.41304
4805.19249	1.41344
4803.13899	1.41290
4801.08549	1.41003
4799.03199	1.40866
4796.97849	1.41084
4794.92499	1.41405
4792.87149	1.41725
4790.81799	1.41963
4788.76449	1.41881
4786.71098	1.41603
4784.65748	1.41324
4782.60398	1.41128
4780.55048	1.41229
4778.49698	1.41397
4776.44348	1.41375
4774.38998	1.41393
4772.33648	1.41549
4770.28298	1.41671
4768.22947	1.41703
4766.17597	1.41755
4764.12247	1.41837
4762.06897	1.41939
4760.01547	1.42066
4757.96197	1.42150
4755.90847	1.42098
4753.85497	1.41953
4751.80147	1.41869
4749.74797	1.41842
4747.69446	1.41822
4745.64096	1.41772
4743.58746	1.41666
4741.53396	1.41562
4739.48046	1.41563
4737.42696	1.41653
4735.37346	1.41737
4733.31996	1.41901
4731.26646	1.42162
4729.21295	1.42354
4727.15945	1.42336
4725.10595	1.42103
4723.05245	1.41818
4720.99895	1.41760
4718.94545	1.41956
4716.89195	1.42025
4714.83845	1.41887
4712.78495	1.41948
4710.73145	1.42056
4708.67794	1.41838
4706.62444	1.41744
4704.57094	1.41954
4702.51744	1.41951
4700.46394	1.41829
4698.41044	1.42006
4696.35694	1.42193
4694.30344	1.42133
4692.24994	1.42129
4690.19643	1.42235
4688.14293	1.42230
4686.08943	1.42072
4684.03593	1.41920
4681.98243	1.41932
4679.92893	1.41971
4677.87543	1.42023
4675.82193	1.42224
4673.76843	1.42339
4671.71492	1.42263
4669.66142	1.42156
4667.60792	1.42098
4665.55442	1.42118
4663.50092	1.42082
4661.44742	1.41983
4659.39392	1.42040
4657.34042	1.42190
4655.28692	1.42198
4653.23342	1.42186
4651.17991	1.42343
4649.12641	1.42488
4647.07291	1.42461
4645.01941	1.42334
4642.96591	1.42121
4640.91241	1.41860
4638.85891	1.41803
4636.80541	1.42052
4634.75191	1.42312
4632.69840	1.42358
4630.64490	1.42304
4628.59140	1.42274
4626.53790	1.42271
4624.48440	1.42367
4622.43090	1.42567
4620.37740	1.42570
4618.32390	1.42296
4616.27040	1.42160
4614.21690	1.42301
4612.16339	1.42444
4610.10989	1.42420
4608.05639	1.42268
4606.00289	1.42168
4603.94939	1.42130
4601.89589	1.41990
4599.84239	1.41914
4597.78889	1.42042
4595.73539	1.42056
4593.68188	1.41965
4591.62838	1.42177
4589.57488	1.42504
4587.52138	1.42506
4585.46788	1.42227
4583.41438	1.41931
4581.36088	1.41792
4579.30738	1.41799
4577.25388	1.41883
4575.20037	1.42017
4573.14687	1.42125
4571.09337	1.42155
4569.03987	1.42110
4566.98637	1.42071
4564.93287	1.42293
4562.87937	1.42726
4560.82587	1.42814
4558.77237	1.42406
4556.71887	1.42024
4554.66536	1.41950
4552.61186	1.42106
4550.55836	1.42375
4548.50486	1.42549
4546.45136	1.42547
4544.39786	1.42491
4542.34436	1.42554
4540.29086	1.42677
4538.23736	1.42702
4536.18385	1.42755
4534.13035	1.42783
4532.07685	1.42625
4530.02335	1.42552
4527.96985	1.42782
4525.91635	1.43012
4523.86285	1.42940
4521.80935	1.42668
4519.75585	1.42462
4517.70234	1.42517
4515.64884	1.42716
4513.59534	1.42794
4511.54184	1.42732
4509.48834	1.42715
4507.43484	1.42884
4505.38134	1.43084
4503.32784	1.43070
4501.27434	1.42949
4499.22084	1.42979
4497.16733	1.43143
4495.11383	1.43181
4493.06033	1.42938
4491.00683	1.42704
4488.95333	1.42851
4486.89983	1.43213
4484.84633	1.43352
4482.79283	1.43269
4480.73933	1.43213
4478.68582	1.43178
4476.63232	1.43199
4474.57882	1.43345
4472.52532	1.43511
4470.47182	1.43627
4468.41832	1.43724
4466.36482	1.43910
4464.31132	1.44086
4462.25782	1.44099
4460.20432	1.44059
4458.15081	1.44041
4456.09731	1.44059
4454.04381	1.44146
4451.99031	1.44268
4449.93681	1.44507
4447.88331	1.44863
4445.82981	1.45029
4443.77631	1.45031
4441.72281	1.45216
4439.66930	1.45553
4437.61580	1.45783
4435.56230	1.45922
4433.50880	1.46056
4431.45530	1.46087
4429.40180	1.46106
4427.34830	1.46295
4425.29480	1.46608
4423.24130	1.46911
4421.18779	1.47055
4419.13429	1.47056
4417.08079	1.47071
4415.02729	1.47062
4412.97379	1.47041
4410.92029	1.47337
4408.86679	1.47861
4406.81329	1.48164
4404.75979	1.48152
4402.70629	1.48020
4400.65278	1.48066
4398.59928	1.48354
4396.54578	1.48683
4394.49228	1.48938
4392.43878	1.49123
4390.38528	1.49213
4388.33178	1.49225
4386.27828	1.49213
4384.22478	1.49217
4382.17127	1.49311
4380.11777	1.49486
4378.06427	1.49727
4376.01077	1.50035
4373.95727	1.50224
4371.90377	1.50267
4369.85027	1.50457
4367.79677	1.50821
4365.74327	1.51209
4363.68976	1.51645
4361.63626	1.52019
4359.58276	1.52136
4357.52926	1.52067
4355.47576	1.52173
4353.42226	1.52599
4351.36876	1.53060
4349.31526	1.53245
4347.26176	1.53125
4345.20826	1.53045
4343.15475	1.53239
4341.10125	1.53601
4339.04775	1.53917
4336.99425	1.53947
4334.94075	1.53892
4332.88725	1.54088
4330.83375	1.54256
4328.78025	1.54208
4326.72675	1.54308
4324.67324	1.54632
4322.61974	1.54660
4320.56624	1.54280
4318.51274	1.53999
4316.45924	1.53826
4314.40574	1.53425
4312.35224	1.52897
4310.29874	1.52552
4308.24524	1.52385
4306.19174	1.52138
4304.13823	1.51877
4302.08473	1.51885
4300.03123	1.52079
4297.97773	1.52225
4295.92423	1.52300
4293.87073	1.52312
4291.81723	1.52268
4289.76373	1.52217
4287.71023	1.52146
4285.65672	1.52049
4283.60322	1.51963
4281.54972	1.51927
4279.49622	1.51998
4277.44272	1.52172
4275.38922	1.52376
4273.33572	1.52476
4271.28222	1.52450
4269.22872	1.52525
4267.17521	1.52713
4265.12171	1.52868
4263.06821	1.52979
4261.01471	1.52974
4258.96121	1.52972
4256.90771	1.53107
4254.85421	1.53209
4252.80071	1.53199
4250.74721	1.53066
4248.69371	1.52697
4246.64020	1.52175
4244.58670	1.51802
4242.53320	1.51675
4240.47970	1.51550
4238.42620	1.51466
4236.37270	1.51693
4234.31920	1.51986
4232.26570	1.51968
4230.21220	1.51717
4228.15869	1.51549
4226.10519	1.51594
4224.05169	1.51734
4221.99819	1.51847
4219.94469	1.51846
4217.89119	1.51749
4215.83769	1.51629
4213.78419	1.51620
4211.73069	1.51783
4209.67719	1.51819
4207.62368	1.51638
4205.57018	1.51618
4203.51668	1.51845
4201.46318	1.52008
4199.40968	1.52031
4197.35618	1.51948
4195.30268	1.51824
4193.24918	1.51891
4191.19568	1.52057
4189.14217	1.52104
4187.08867	1.52124
4185.03517	1.52137
4182.98167	1.52108
4180.92817	1.52048
4178.87467	1.51923
4176.82117	1.51805
4174.76767	1.51771
4172.71417	1.51808
4170.66066	1.51831
4168.60716	1.51798
4166.55366	1.51752
4164.50016	1.51728
4162.44666	1.51820
4160.39316	1.51991
4158.33966	1.52024
4156.28616	1.51941
4154.23266	1.51931
4152.17916	1.51943
4150.12565	1.51930
4148.07215	1.51929
4146.01865	1.51890
4143.96515	1.51806
4141.91165	1.51798
4139.85815	1.51877
4137.80465	1.51982
4135.75115	1.52118
4133.69765	1.52109
4131.64414	1.51934
4129.59064	1.51811
4127.53714	1.51733
4125.48364	1.51587
4123.43014	1.51476
4121.37664	1.51554
4119.32314	1.51701
4117.26964	1.51824
4115.21614	1.51936
4113.16263	1.51966
4111.10913	1.51983
4109.05563	1.51992
4107.00213	1.51860
4104.94863	1.51748
4102.89513	1.51835
4100.84163	1.52055
4098.78813	1.52270
4096.73463	1.52345
4094.68113	1.52329
4092.62762	1.52303
4090.57412	1.52301
4088.52062	1.52250
4086.46712	1.52016
4084.41362	1.51822
4082.36012	1.51857
4080.30662	1.51919
4078.25312	1.51853
4076.19962	1.51817
4074.14611	1.51934
4072.09261	1.52066
4070.03911	1.52145
4067.98561	1.52194
4065.93211	1.52118
4063.87861	1.51988
4061.82511	1.52012
4059.77161	1.52180
4057.71811	1.52316
4055.66461	1.52289
4053.61110	1.52166
4051.55760	1.52107
4049.50410	1.52142
4047.45060	1.52197
4045.39710	1.52124
4043.34360	1.51921
4041.29010	1.51808
4039.23660	1.51844
4037.18310	1.52010
4035.12959	1.52305
4033.07609	1.52513
4031.02259	1.52509
4028.96909	1.52505
4026.91559	1.52565
4024.86209	1.52506
4022.80859	1.52358
4020.75509	1.52328
4018.70159	1.52429
4016.64808	1.52415
4014.59458	1.52178
4012.54108	1.51967
4010.48758	1.51924
4008.43408	1.51899
4006.38058	1.51823
4004.32708	1.51814
4002.27358	1.51899
4000.22008	1.51937
3998.16658	1.51925
3996.11307	1.51985
3994.05957	1.52022
3992.00607	1.51874
3989.95257	1.51757
3987.89907	1.51895
3985.84557	1.51988
3983.79207	1.51917
3981.73857	1.51925
3979.68507	1.51979
3977.63156	1.51941
3975.57806	1.51798
3973.52456	1.51672
3971.47106	1.51663
3969.41756	1.51622
3967.36406	1.51575
3965.31056	1.51701
3963.25706	1.51854
3961.20356	1.51809
3959.15006	1.51626
3957.09655	1.51591
3955.04305	1.51838
3952.98955	1.52065
3950.93605	1.51964
3948.88255	1.51678
3946.82905	1.51489
3944.77555	1.51426
3942.72205	1.51427
3940.66855	1.51444
3938.61504	1.51415
3936.56154	1.51384
3934.50804	1.51460
3932.45454	1.51589
3930.40104	1.51618
3928.34754	1.51518
3926.29404	1.51355
3924.24054	1.51257
3922.18704	1.51316
3920.13353	1.51416
3918.08003	1.51413
3916.02653	1.51339
3913.97303	1.51222
3911.91953	1.51060
3909.86603	1.50933
3907.81253	1.50891
3905.75903	1.50924
3903.70553	1.50965
3901.65203	1.51006
3899.59852	1.51144
3897.54502	1.51311
3895.49152	1.51350
3893.43802	1.51273
3891.38452	1.51216
3889.33102	1.51193
3887.27752	1.51047
3885.22402	1.50788
3883.17052	1.50766
3881.11701	1.50942
3879.06351	1.50974
3877.01001	1.50878
3874.95651	1.50721
3872.90301	1.50540
3870.84951	1.50553
3868.79601	1.50759
3866.74251	1.50889
3864.68901	1.50827
3862.63550	1.50745
3860.58200	1.50884
3858.52850	1.51106
3856.47500	1.51207
3854.42150	1.51149
3852.36800	1.50956
3850.31450	1.50815
3848.26100	1.50911
3846.20750	1.51103
3844.15400	1.51187
3842.10049	1.51193
3840.04699	1.51171
3837.99349	1.51039
3835.93999	1.51006
3833.88649	1.51208
3831.83299	1.51309
3829.77949	1.51234
3827.72599	1.51266
3825.67249	1.51372
3823.61898	1.51387
3821.56548	1.51260
3819.51198	1.51094
3817.45848	1.51193
3815.40498	1.51422
3813.35148	1.51495
3811.29798	1.51487
3809.24448	1.51404
3807.19098	1.51161
3805.13748	1.50951
3803.08397	1.50902
3801.03047	1.50900
3798.97697	1.51079
3796.92347	1.51341
3794.86997	1.51411
3792.81647	1.51346
3790.76297	1.51268
3788.70947	1.51289
3786.65597	1.51421
3784.60246	1.51487
3782.54896	1.51545
3780.49546	1.51673
3778.44196	1.51730
3776.38846	1.51715
3774.33496	1.51721
3772.28146	1.51832
3770.22796	1.51981
3768.17446	1.52003
3766.12095	1.51980
3764.06745	1.52001
3762.01395	1.52101
3759.96045	1.52260
3757.90695	1.52402
3755.85345	1.52442
3753.79995	1.52318
3751.74645	1.52049
3749.69295	1.52003
3747.63945	1.52406
3745.58594	1.52824
3743.53244	1.52910
3741.47894	1.52976
3739.42544	1.53138
3737.37194	1.53291
3735.31844	1.53556
3733.26494	1.53692
3731.21144	1.53536
3729.15794	1.53522
3727.10443	1.53831
3725.05093	1.54325
3722.99743	1.54745
3720.94393	1.55072
3718.89043	1.55530
3716.83693	1.56104
3714.78343	1.56690
3712.72993	1.57376
3710.67643	1.58185
3708.62292	1.59113
3706.56942	1.60377
3704.51592	1.61932
3702.46242	1.63647
3700.40892	1.65341
3698.35542	1.66601
3696.30192	1.67280
3694.24842	1.67465
3692.19492	1.67195
3690.14142	1.66558
3688.08791	1.65783
3686.03441	1.65121
3683.98091	1.64686
3681.92741	1.64585
3679.87391	1.64785
3677.82041	1.65139
3675.76691	1.65664
3673.71341	1.66230
3671.65991	1.66709
3669.60640	1.67051
3667.55290	1.67126
3665.49940	1.67216
3663.44590	1.67468
3661.39240	1.67822
3659.33890	1.68280
3657.28540	1.69007
3655.23190	1.69832
3653.17840	1.70252
3651.12490	1.70383
3649.07139	1.70522
3647.01789	1.70490
3644.96439	1.70422
3642.91089	1.70539
3640.85739	1.70714
3638.80389	1.70933
3636.75039	1.71256
3634.69689	1.71579
3632.64339	1.71808
3630.58988	1.71953
3628.53638	1.72442
3626.48288	1.73502
3624.42938	1.74480
3622.37588	1.75187
3620.32238	1.75577
3618.26888	1.75477
3616.21538	1.75243
3614.16188	1.75316
3612.10837	1.75683
3610.05487	1.76053
3608.00137	1.76184
3605.94787	1.76117
3603.89437	1.76117
3601.84087	1.76487
3599.78737	1.77250
3597.73387	1.78023
3595.68037	1.78547
3593.62687	1.78879
3591.57336	1.79130
3589.51986	1.79429
3587.46636	1.80030
3585.41286	1.80755
3583.35936	1.81252
3581.30586	1.81593
3579.25236	1.81877
3577.19886	1.82243
3575.14536	1.82589
3573.09185	1.82677
3571.03835	1.82583
3568.98485	1.82508
3566.93135	1.82784
3564.87785	1.83404
3562.82435	1.83711
3560.77085	1.83454
3558.71735	1.83171
3556.66385	1.83362
3554.61035	1.83839
3552.55684	1.84358
3550.50334	1.84636
3548.44984	1.84647
3546.39634	1.84695
3544.34284	1.84632
3542.28934	1.84397
3540.23584	1.84428
3538.18234	1.84748
3536.12884	1.84891
3534.07533	1.84681
3532.02183	1.84415
3529.96833	1.84287
3527.91483	1.84256
3525.86133	1.84343
3523.80783	1.84550
3521.75433	1.84580
3519.70083	1.84289
3517.64733	1.84054
3515.59382	1.83875
3513.54032	1.83549
3511.48682	1.83428
3509.43332	1.83490
3507.37982	1.83383
3505.32632	1.83310
3503.27282	1.83319
3501.21932	1.83287
3499.16582	1.83370
3497.11232	1.83535
3495.05881	1.83661
3493.00531	1.83736
3490.95181	1.83776
3488.89831	1.83812
3486.84481	1.83853
3484.79131	1.83849
3482.73781	1.83650
3480.68431	1.83418
3478.63081	1.83548
3476.57730	1.83819
3474.52380	1.83791
3472.47030	1.83672
3470.41680	1.83711
3468.36330	1.83833
3466.30980	1.83955
3464.25630	1.83987
3462.20280	1.83943
3460.14930	1.83872
3458.09579	1.83871
3456.04229	1.84000
3453.98879	1.84121
3451.93529	1.84109
3449.88179	1.84118
3447.82829	1.84135
3445.77479	1.83981
3443.72129	1.83963
3441.66779	1.84237
3439.61429	1.84601
3437.56078	1.84820
3435.50728	1.84678
3433.45378	1.84381
3431.40028	1.84193
3429.34678	1.84073
3427.29328	1.83977
3425.23978	1.83965
3423.18628	1.84151
3421.13278	1.84503
3419.07927	1.84748
3417.02577	1.84808
3414.97227	1.84721
3412.91877	1.84492
3410.86527	1.84332
3408.81177	1.84414
3406.75827	1.84580
3404.70477	1.84597
3402.65127	1.84483
3400.59777	1.84315
3398.54426	1.84125
3396.49076	1.83990
3394.43726	1.83914
3392.38376	1.83947
3390.33026	1.84225
3388.27676	1.84605
3386.22326	1.84696
3384.16976	1.84490
3382.11626	1.84488
3380.06275	1.84660
3378.00925	1.84518
3375.95575	1.84232
3373.90225	1.84204
3371.84875	1.84366
3369.79525	1.84364
3367.74175	1.84177
3365.68825	1.84214
3363.63475	1.84486
3361.58124	1.84607
3359.52774	1.84508
3357.47424	1.84365
3355.42074	1.84280
3353.36724	1.84366
3351.31374	1.84519
3349.26024	1.84632
3347.20674	1.84726
3345.15324	1.84646
3343.09974	1.84440
3341.04623	1.84346
3338.99273	1.84399
3336.93923	1.84435
3334.88573	1.84302
3332.83223	1.84122
3330.77873	1.84093
3328.72523	1.84214
3326.67173	1.84395
3324.61823	1.84456
3322.56472	1.84342
3320.51122	1.84341
3318.45772	1.84499
3316.40422	1.84351
3314.35072	1.84080
3312.29722	1.84376
3310.24372	1.84807
3308.19022	1.84630
3306.13672	1.84283
3304.08321	1.84307
3302.02971	1.84438
3299.97621	1.84338
3297.92271	1.84045
3295.86921	1.83903
3293.81571	1.84131
3291.76221	1.84365
3289.70871	1.84428
3287.65521	1.84622
3285.60171	1.84723
3283.54820	1.84402
3281.49470	1.84130
3279.44120	1.84283
3277.38770	1.84460
3275.33420	1.84332
3273.28070	1.84114
3271.22720	1.83987
3269.17370	1.83978
3267.12020	1.84076
3265.06669	1.84127
3263.01319	1.84083
3260.95969	1.84022
3258.90619	1.84080
3256.85269	1.84181
3254.79919	1.84119
3252.74569	1.84029
3250.69219	1.83992
3248.63869	1.84091
3246.58519	1.84241
3244.53168	1.84032
3242.47818	1.83763
3240.42468	1.83930
3238.37118	1.84190
3236.31768	1.84226
3234.26418	1.84289
3232.21068	1.84348
3230.15718	1.84116
3228.10368	1.83769
3226.05017	1.83669
3223.99667	1.83865
3221.94317	1.84082
3219.88967	1.84061
3217.83617	1.83885
3215.78267	1.83810
3213.72917	1.83868
3211.67567	1.83880
3209.62217	1.83856
3207.56866	1.83925
3205.51516	1.84024
3203.46166	1.84026
3201.40816	1.83922
3199.35466	1.83823
3197.30116	1.83868
3195.24766	1.83937
3193.19416	1.83872
3191.14066	1.83864
3189.08716	1.83951
3187.03365	1.83929
3184.98015	1.83831
3182.92665	1.83829
3180.87315	1.83883
3178.81965	1.83872
3176.76615	1.83708
3174.71265	1.83494
3172.65915	1.83574
3170.60565	1.83873
3168.55214	1.84018
3166.49864	1.83922
3164.44514	1.83680
3162.39164	1.83576
3160.33814	1.83670
3158.28464	1.83704
3156.23114	1.83741
3154.17764	1.83875
3152.12414	1.83802
3150.07064	1.83463
3148.01713	1.83250
3145.96363	1.83252
3143.91013	1.83183
3141.85663	1.83158
3139.80313	1.83392
3137.74963	1.83501
3135.69613	1.83376
3133.64263	1.83375
3131.58913	1.83547
3129.53562	1.83703
3127.48212	1.83738
3125.42862	1.83737
3123.37512	1.83700
3121.32162	1.83651
3119.26812	1.83619
3117.21462	1.83535
3115.16112	1.83519
3113.10762	1.83515
3111.05411	1.83441
3109.00061	1.83433
3106.94711	1.83495
3104.89361	1.83526
3102.84011	1.83472
3100.78661	1.83348
3098.73311	1.83193
3096.67961	1.83154
3094.62611	1.83330
3092.57261	1.83457
3090.51910	1.83446
3088.46560	1.83445
3086.41210	1.83392
3084.35860	1.83276
3082.30510	1.83140
3080.25160	1.83051
3078.19810	1.83139
3076.14460	1.83369
3074.09110	1.83532
3072.03759	1.83443
3069.98409	1.83278
3067.93059	1.83237
3065.87709	1.83220
3063.82359	1.83249
3061.77009	1.83373
3059.71659	1.83469
3057.66309	1.83493
3055.60959	1.83559
3053.55608	1.83749
3051.50258	1.83831
3049.44908	1.83600
3047.39558	1.83371
3045.34208	1.83490
3043.28858	1.83726
3041.23508	1.83735
3039.18158	1.83716
3037.12808	1.83919
3035.07458	1.84122
3033.02107	1.84165
3030.96757	1.84232
3028.91407	1.84356
3026.86057	1.84405
3024.80707	1.84488
3022.75357	1.84699
3020.70007	1.84785
3018.64657	1.84648
3016.59307	1.84579
3014.53956	1.84793
3012.48606	1.85162
3010.43256	1.85455
3008.37906	1.85633
3006.32556	1.85743
3004.27206	1.85844
3002.21856	1.85984
3000.16506	1.86239
2998.11156	1.86606
2996.05806	1.86733
2994.00455	1.86503
2991.95105	1.86274
2989.89755	1.86261
2987.84405	1.86291
2985.79055	1.86069
2983.73705	1.85712
2981.68355	1.85440
2979.63005	1.85047
2977.57655	1.84604
2975.52304	1.84462
2973.46954	1.84583
2971.41604	1.84764
2969.36254	1.85009
2967.30904	1.85345
2965.25554	1.85631
2963.20204	1.85858
2961.14854	1.85908
2959.09504	1.85757
2957.04153	1.85698
2954.98803	1.85733
2952.93453	1.85782
2950.88103	1.85759
2948.82753	1.85570
2946.77403	1.85447
2944.72053	1.85426
2942.66703	1.85246
2940.61353	1.84997
2938.56003	1.84888
2936.50652	1.84741
2934.45302	1.84500
2932.39952	1.84420
2930.34602	1.84382
2928.29252	1.84148
2926.23902	1.83935
2924.18552	1.83874
2922.13202	1.83708
2920.07852	1.83211
2918.02501	1.82538
2915.97151	1.82148
2913.91801	1.82202
2911.86451	1.82377
2909.81101	1.82491
2907.75751	1.82706
2905.70401	1.82972
2903.65051	1.83015
2901.59701	1.82766
2899.54351	1.82420
2897.49000	1.82265
2895.43650	1.82375
2893.38300	1.82530
2891.32950	1.82532
2889.27600	1.82433
2887.22250	1.82460
2885.16900	1.82549
2883.11550	1.82451
2881.06200	1.82254
2879.00849	1.82242
2876.95499	1.82455
2874.90149	1.82684
2872.84799	1.82827
2870.79449	1.82842
2868.74099	1.82732
2866.68749	1.82749
2864.63399	1.83020
2862.58049	1.83314
2860.52698	1.83393
2858.47348	1.83293
2856.41998	1.83212
2854.36648	1.83191
2852.31298	1.83009
2850.25948	1.82603
2848.20598	1.82199
2846.15248	1.81977
2844.09898	1.81906
2842.04548	1.81729
2839.99197	1.81312
2837.93847	1.80874
2835.88497	1.80591
2833.83147	1.80517
2831.77797	1.80591
2829.72447	1.80547
2827.67097	1.80389
2825.61747	1.80325
2823.56397	1.80242
2821.51046	1.80009
2819.45696	1.79781
2817.40346	1.79745
2815.34996	1.79854
2813.29646	1.79858
2811.24296	1.79653
2809.18946	1.79504
2807.13596	1.79566
2805.08246	1.79605
2803.02895	1.79546
2800.97545	1.79491
2798.92195	1.79418
2796.86845	1.79389
2794.81495	1.79410
2792.76145	1.79382
2790.70795	1.79270
2788.65445	1.79113
2786.60095	1.79051
2784.54745	1.79064
2782.49394	1.79015
2780.44044	1.78987
2778.38694	1.78989
2776.33344	1.78909
2774.27994	1.78854
2772.22644	1.78883
2770.17294	1.78851
2768.11944	1.78741
2766.06594	1.78669
2764.01243	1.78638
2761.95893	1.78505
2759.90543	1.78333
2757.85193	1.78356
2755.79843	1.78502
2753.74493	1.78480
2751.69143	1.78293
2749.63793	1.78173
2747.58443	1.78251
2745.53093	1.78488
2743.47742	1.78615
2741.42392	1.78536
2739.37042	1.78503
2737.31692	1.78498
2735.26342	1.78437
2733.20992	1.78442
2731.15642	1.78464
2729.10292	1.78454
2727.04942	1.78395
2724.99591	1.78235
2722.94241	1.78138
2720.88891	1.78168
2718.83541	1.78152
2716.78191	1.78040
2714.72841	1.77983
2712.67491	1.78038
2710.62141	1.78055
2708.56791	1.77946
2706.51440	1.77822
2704.46090	1.77736
2702.40740	1.77621
2700.35390	1.77556
2698.30040	1.77638
2696.24690	1.77798
2694.19340	1.77931
2692.13990	1.78045
2690.08640	1.78061
2688.03290	1.77839
2685.97939	1.77543
2683.92589	1.77361
2681.87239	1.77265
2679.81889	1.77297
2677.76539	1.77468
2675.71189	1.77546
2673.65839	1.77446
2671.60489	1.77402
2669.55139	1.77543
2667.49788	1.77684
2665.44438	1.77624
2663.39088	1.77452
2661.33738	1.77386
2659.28388	1.77428
2657.23038	1.77417
2655.17688	1.77336
2653.12338	1.77297
2651.06988	1.77299
2649.01637	1.77265
2646.96287	1.77206
2644.90937	1.77129
2642.85587	1.77004
2640.80237	1.76937
2638.74887	1.77033
2636.69537	1.77150
2634.64187	1.77098
2632.58837	1.76958
2630.53487	1.76978
2628.48136	1.77154
2626.42786	1.77233
2624.37436	1.77161
2622.32086	1.77100
2620.26736	1.77050
2618.21386	1.76900
2616.16036	1.76632
2614.10686	1.76371
2612.05336	1.76316
2609.99985	1.76417
2607.94635	1.76518
2605.89285	1.76636
2603.83935	1.76789
2601.78585	1.76825
2599.73235	1.76614
2597.67885	1.76366
2595.62535	1.76251
2593.57185	1.76203
2591.51835	1.76175
2589.46484	1.76150
2587.41134	1.76173
2585.35784	1.76206
2583.30434	1.76153
2581.25084	1.76069
2579.19734	1.76046
2577.14384	1.76060
2575.09034	1.76007
2573.03684	1.75892
2570.98333	1.75907
2568.92983	1.76117
2566.87633	1.76302
2564.82283	1.76309
2562.76933	1.76183
2560.71583	1.76014
2558.66233	1.75919
2556.60883	1.75887
2554.55533	1.75842
2552.50182	1.75848
2550.44832	1.75859
2548.39482	1.75816
2546.34132	1.75797
2544.28782	1.75786
2542.23432	1.75769
2540.18082	1.75801
2538.12732	1.75903
2536.07382	1.76057
2534.02032	1.76168
2531.96681	1.76138
2529.91331	1.75948
2527.85981	1.75705
2525.80631	1.75627
2523.75281	1.75757
2521.69931	1.75901
2519.64581	1.75894
2517.59231	1.75848
2515.53881	1.75939
2513.48530	1.76117
2511.43180	1.76210
2509.37830	1.76150
2507.32480	1.76077
2505.27130	1.76025
2503.21780	1.75917
2501.16430	1.75812
2499.11080	1.75888
2497.05730	1.76206
2495.00380	1.76433
2492.95029	1.76334
2490.89679	1.76216
2488.84329	1.76201
2486.78979	1.76085
2484.73629	1.75895
2482.68279	1.75881
2480.62929	1.76125
2478.57579	1.76383
2476.52229	1.76468
2474.46878	1.76444
2472.41528	1.76443
2470.36178	1.76557
2468.30828	1.76682
2466.25478	1.76633
2464.20128	1.76477
2462.14778	1.76396
2460.09428	1.76399
2458.04078	1.76390
2455.98727	1.76311
2453.93377	1.76295
2451.88027	1.76391
2449.82677	1.76442
2447.77327	1.76502
2445.71977	1.76675
2443.66627	1.76860
2441.61277	1.76912
2439.55927	1.76802
2437.50577	1.76660
2435.45226	1.76533
2433.39876	1.76408
2431.34526	1.76425
2429.29176	1.76544
2427.23826	1.76586
2425.18476	1.76564
2423.13126	1.76502
2421.07776	1.76382
2419.02426	1.76255
2416.97075	1.76172
2414.91725	1.76155
2412.86375	1.76163
2410.81025	1.76083
2408.75675	1.75886
2406.70325	1.75713
2404.64975	1.75727
2402.59625	1.75872
2400.54275	1.75940
2398.48924	1.75866
2396.43574	1.75789
2394.38224	1.75761
2392.32874	1.75663
2390.27524	1.75550
2388.22174	1.75556
2386.16824	1.75631
2384.11474	1.75636
2382.06124	1.75512
2380.00774	1.75390
2377.95423	1.75358
2375.90073	1.75331
2373.84723	1.75300
2371.79373	1.75198
2369.74023	1.74815
2367.68673	1.74396
2365.63323	1.74244
2363.57973	1.74326
2361.52623	1.74547
2359.47272	1.74500
2357.41922	1.74166
2355.36572	1.73914
2353.31222	1.73820
2351.25872	1.73948
2349.20522	1.74169
2347.15172	1.74231
2345.09822	1.74138
2343.04472	1.74009
2340.99122	1.73943
2338.93771	1.74041
2336.88421	1.74147
2334.83071	1.74112
2332.77721	1.73784
2330.72371	1.73342
2328.67021	1.73254
2326.61671	1.73429
2324.56321	1.73534
2322.50971	1.73433
2320.45620	1.73204
2318.40270	1.73033
2316.34920	1.73018
2314.29570	1.73075
2312.24220	1.73040
2310.18870	1.72995
2308.13520	1.73083
2306.08170	1.73157
2304.02820	1.73058
2301.97469	1.72872
2299.92119	1.72746
2297.86769	1.72678
2295.81419	1.72681
2293.76069	1.72754
2291.70719	1.72761
2289.65369	1.72728
2287.60019	1.72699
2285.54669	1.72677
2283.49319	1.72701
2281.43968	1.72664
2279.38618	1.72576
2277.33268	1.72519
2275.27918	1.72490
2273.22568	1.72443
2271.17218	1.72354
2269.11868	1.72362
2267.06518	1.72515
2265.01168	1.72667
2262.95817	1.72667
2260.90467	1.72594
2258.85117	1.72587
2256.79767	1.72521
2254.74417	1.72390
2252.69067	1.72320
2250.63717	1.72295
2248.58367	1.72347
2246.53017	1.72440
2244.47667	1.72463
2242.42316	1.72438
2240.36966	1.72469
2238.31616	1.72540
2236.26266	1.72543
2234.20916	1.72566
2232.15566	1.72639
2230.10216	1.72573
2228.04866	1.72446
2225.99516	1.72422
2223.94165	1.72407
2221.88815	1.72321
2219.83465	1.72193
2217.78115	1.72175
2215.72765	1.72354
2213.67415	1.72479
2211.62065	1.72357
2209.56715	1.72187
2207.51365	1.72152
2205.46014	1.72198
2203.40664	1.72293
2201.35314	1.72400
2199.29964	1.72444
2197.24614	1.72459
2195.19264	1.72536
2193.13914	1.72614
2191.08564	1.72573
2189.03214	1.72489
2186.97864	1.72485
2184.92513	1.72532
2182.87163	1.72529
2180.81813	1.72506
2178.76463	1.72565
2176.71113	1.72612
2174.65763	1.72537
2172.60413	1.72465
2170.55063	1.72509
2168.49713	1.72583
2166.44362	1.72621
2164.39012	1.72694
2162.33662	1.72781
2160.28312	1.72715
2158.22962	1.72615
2156.17612	1.72715
2154.12262	1.72844
2152.06912	1.72821
2150.01562	1.72761
2147.96211	1.72770
2145.90861	1.72915
2143.85511	1.73109
2141.80161	1.73140
2139.74811	1.73042
2137.69461	1.72899
2135.64111	1.72757
2133.58761	1.72706
2131.53411	1.72763
2129.48061	1.72925
2127.42710	1.73092
2125.37360	1.73138
2123.32010	1.73121
2121.26660	1.73143
2119.21310	1.73166
2117.15960	1.73167
2115.10610	1.73137
2113.05260	1.73086
2110.99910	1.73088
2108.94559	1.73090
2106.89209	1.73034
2104.83859	1.73042
2102.78509	1.73113
2100.73159	1.73161
2098.67809	1.73270
2096.62459	1.73374
2094.57109	1.73369
2092.51759	1.73374
2090.46409	1.73482
2088.41058	1.73652
2086.35708	1.73769
2084.30358	1.73762
2082.25008	1.73682
2080.19658	1.73618
2078.14308	1.73573
2076.08958	1.73530
2074.03608	1.73515
2071.98258	1.73511
2069.92907	1.73501
2067.87557	1.73505
2065.82207	1.73513
2063.76857	1.73555
2061.71507	1.73652
2059.66157	1.73639
2057.60807	1.73526
2055.55457	1.73586
2053.50107	1.73791
2051.44756	1.73892
2049.39406	1.73877
2047.34056	1.73849
2045.28706	1.73782
2043.23356	1.73719
2041.18006	1.73785
2039.12656	1.73882
2037.07306	1.73907
2035.01956	1.73945
2032.96606	1.74004
2030.91255	1.74045
2028.85905	1.74051
2026.80555	1.73968
2024.75205	1.73872
2022.69855	1.73952
2020.64505	1.74151
2018.59155	1.74226
2016.53805	1.74124
2014.48455	1.74058
2012.43104	1.74104
2010.37754	1.74096
2008.32404	1.74029
2006.27054	1.73998
2004.21704	1.73991
2002.16354	1.74038
2000.11004	1.74212
1998.05654	1.74387
1996.00304	1.74377
1993.94953	1.74256
1991.89603	1.74220
1989.84253	1.74275
1987.78903	1.74278
1985.73553	1.74267
1983.68203	1.74365
1981.62853	1.74494
1979.57503	1.74533
1977.52153	1.74514
1975.46803	1.74478
1973.41452	1.74478
1971.36102	1.74575
1969.30752	1.74692
1967.25402	1.74721
1965.20052	1.74659
1963.14702	1.74616
1961.09352	1.74640
1959.04002	1.74715
1956.98652	1.74816
1954.93301	1.74883
1952.87951	1.74948
1950.82601	1.75095
1948.77251	1.75278
1946.71901	1.75342
1944.66551	1.75252
1942.61201	1.75157
1940.55851	1.75178
1938.50501	1.75232
1936.45151	1.75262
1934.39800	1.75317
1932.34450	1.75424
1930.29100	1.75599
1928.23750	1.75748
1926.18400	1.75782
1924.13050	1.75806
1922.07700	1.75890
1920.02350	1.75971
1917.97000	1.76003
1915.91649	1.76012
1913.86299	1.76055
1911.80949	1.76142
1909.75599	1.76223
1907.70249	1.76257
1905.64899	1.76321
1903.59549	1.76457
1901.54199	1.76584
1899.48849	1.76648
1897.43498	1.76676
1895.38148	1.76706
1893.32798	1.76753
1891.27448	1.76801
1889.22098	1.76791
1887.16748	1.76778
1885.11398	1.76838
1883.06048	1.76966
1881.00698	1.77104
1878.95348	1.77143
1876.89997	1.77128
1874.84647	1.77186
1872.79297	1.77279
1870.73947	1.77341
1868.68597	1.77430
1866.63247	1.77480
1864.57897	1.77453
1862.52547	1.77540
1860.47197	1.77719
1858.41846	1.77809
1856.36496	1.77895
1854.31146	1.78018
1852.25796	1.78050
1850.20446	1.78067
1848.15096	1.78158
1846.09746	1.78311
1844.04396	1.78584
1841.99046	1.78829
1839.93696	1.78948
1837.88345	1.79019
1835.82995	1.79062
1833.77645	1.79139
1831.72295	1.79316
1829.66945	1.79665
1827.61595	1.80081
1825.56245	1.80301
1823.50895	1.80337
1821.45545	1.80446
1819.40194	1.80794
1817.34844	1.81279
1815.29494	1.81679
1813.24144	1.81892
1811.18794	1.82011
1809.13444	1.82319
1807.08094	1.82864
1805.02744	1.83355
1802.97394	1.83840
1800.92043	1.84542
1798.86693	1.85262
1796.81343	1.85848
1794.75993	1.86430
1792.70643	1.87117
1790.65293	1.87865
1788.59943	1.88594
1786.54593	1.89352
1784.49243	1.90025
1782.43893	1.90584
1780.38542	1.91273
1778.33192	1.92047
1776.27842	1.92679
1774.22492	1.93252
1772.17142	1.94180
1770.11792	1.95372
1768.06442	1.96381
1766.01092	1.97380
1763.95742	1.98511
1761.90391	1.99931
1759.85041	2.01449
1757.79691	2.02989
1755.74341	2.04653
1753.68991	2.05942
1751.63641	2.06465
1749.58291	2.05360
1747.52941	2.02202
1745.47591	1.97694
1743.42240	1.92277
1741.36890	1.86479
1739.31540	1.80970
1737.26190	1.77034
1735.20840	1.73987
1733.15490	1.70552
1731.10140	1.67965
1729.04790	1.66118
1726.99440	1.64555
1724.94090	1.63255
1722.88739	1.62201
1720.83389	1.61565
1718.78039	1.61513
1716.72689	1.62304
1714.67339	1.63707
1712.61989	1.65173
1710.56639	1.66561
1708.51289	1.67928
1706.45939	1.69489
1704.40588	1.70967
1702.35238	1.71902
1700.29888	1.72851
1698.24538	1.73890
1696.19188	1.74677
1694.13838	1.75275
1692.08488	1.75581
1690.03138	1.75814
1687.97788	1.76121
1685.92438	1.76428
1683.87087	1.76887
1681.81737	1.77492
1679.76387	1.77981
1677.71037	1.78406
1675.65687	1.78754
1673.60337	1.78941
1671.54987	1.79060
1669.49637	1.79503
1667.44287	1.80142
1665.38936	1.80468
1663.33586	1.80650
1661.28236	1.80882
1659.22886	1.81086
1657.17536	1.81207
1655.12186	1.81222
1653.06836	1.81325
1651.01486	1.81560
1648.96136	1.81615
1646.90785	1.81755
1644.85435	1.82103
1642.80085	1.82411
1640.74735	1.82598
1638.69385	1.82617
1636.64035	1.82629
1634.58685	1.83006
1632.53335	1.83345
1630.47985	1.83325
1628.42635	1.83143
1626.37284	1.83137
1624.31934	1.83391
1622.26584	1.83644
1620.21234	1.83710
1618.15884	1.83646
1616.10534	1.83649
1614.05184	1.83852
1611.99834	1.84042
1609.94484	1.84150
1607.89133	1.84249
1605.83783	1.84291
1603.78433	1.84255
1601.73083	1.84289
1599.67733	1.84417
1597.62383	1.84612
1595.57033	1.84834
1593.51683	1.84996
1591.46333	1.85040
1589.40982	1.85033
1587.35632	1.85154
1585.30282	1.85384
1583.24932	1.85566
1581.19582	1.85718
1579.14232	1.85919
1577.08882	1.86114
1575.03532	1.86122
1572.98182	1.86011
1570.92832	1.86056
1568.87481	1.86301
1566.82131	1.86457
1564.76781	1.86502
1562.71431	1.86591
1560.66081	1.86780
1558.60731	1.87031
1556.55381	1.87042
1554.50031	1.87021
1552.44681	1.87201
1550.39330	1.87435
1548.33980	1.87445
1546.28630	1.87223
1544.23280	1.87024
1542.17930	1.87228
1540.12580	1.87651
1538.07230	1.87648
1536.01880	1.87596
1533.96530	1.87690
1531.91180	1.87791
1529.85829	1.87800
1527.80479	1.87786
1525.75129	1.87869
1523.69779	1.88024
1521.64429	1.88122
1519.59079	1.88186
1517.53729	1.88262
1515.48379	1.88300
1513.43029	1.88258
1511.37678	1.88106
1509.32328	1.87895
1507.26978	1.88021
1505.21628	1.88576
1503.16278	1.88798
1501.10928	1.88914
1499.05578	1.89231
1497.00228	1.89667
1494.94878	1.89877
1492.89527	1.89940
1490.84177	1.89995
1488.78827	1.89715
1486.73477	1.88911
1484.68127	1.88134
1482.62777	1.87589
1480.57427	1.87192
1478.52077	1.86779
1476.46727	1.86130
1474.41377	1.85497
1472.36026	1.85391
1470.30676	1.85579
1468.25326	1.85602
1466.19976	1.85558
1464.14626	1.85713
1462.09276	1.85857
1460.03926	1.85644
1457.98576	1.85022
1455.93226	1.84302
1453.87875	1.83657
1451.82525	1.82757
1449.77175	1.81581
1447.71825	1.80362
1445.66475	1.79462
1443.61125	1.78878
1441.55775	1.78468
1439.50425	1.78289
1437.45075	1.78229
1435.39725	1.78122
1433.34374	1.78108
1431.29024	1.78252
1429.23674	1.78526
1427.18324	1.78984
1425.12974	1.79644
1423.07624	1.80458
1421.02274	1.81287
1418.96924	1.82038
1416.91574	1.82621
1414.86223	1.83109
1412.80873	1.83598
1410.75523	1.83987
1408.70173	1.84228
1406.64823	1.84531
1404.59473	1.85037
1402.54123	1.85441
1400.48773	1.85612
1398.43423	1.85777
1396.38072	1.85987
1394.32722	1.85997
1392.27372	1.85663
1390.22022	1.85218
1388.16672	1.84699
1386.11322	1.83969
1384.05972	1.83313
1382.00622	1.83082
1379.95272	1.83274
1377.89922	1.83652
1375.84571	1.84048
1373.79221	1.84420
1371.73871	1.84643
1369.68521	1.84538
1367.63171	1.84091
1365.57821	1.83634
1363.52471	1.83438
1361.47121	1.83528
1359.41771	1.83840
1357.36420	1.84189
1355.31070	1.84398
1353.25720	1.84521
1351.20370	1.84602
1349.15020	1.84610
1347.09670	1.84687
1345.04320	1.84878
1342.98970	1.85045
1340.93620	1.85205
1338.88269	1.85463
1336.82919	1.85760
1334.77569	1.86062
1332.72219	1.86348
1330.66869	1.86509
1328.61519	1.86582
1326.56169	1.86807
1324.50819	1.87267
1322.45469	1.87758
1320.40119	1.88163
1318.34768	1.88478
1316.29418	1.88661
1314.24068	1.88762
1312.18718	1.88909
1310.13368	1.89055
1308.08018	1.89007
1306.02668	1.88759
1303.97318	1.88411
1301.91968	1.88035
1299.86617	1.87767
1297.81267	1.87748
1295.75917	1.87878
1293.70567	1.87809
1291.65217	1.87498
1289.59867	1.87299
1287.54517	1.87322
1285.49167	1.87314
1283.43817	1.87211
1281.38467	1.87026
1279.33116	1.86704
1277.27766	1.86314
1275.22416	1.85920
1273.17066	1.85533
1271.11716	1.85133
1269.06366	1.84820
1267.01016	1.84724
1264.95666	1.84716
1262.90316	1.84620
1260.84965	1.84431
1258.79615	1.84340
1256.74265	1.84431
1254.68915	1.84396
1252.63565	1.84121
1250.58215	1.83803
1248.52865	1.83341
1246.47515	1.82660
1244.42165	1.81935
1242.36814	1.81171
1240.31464	1.80356
1238.26114	1.79670
1236.20764	1.79175
1234.15414	1.78786
1232.10064	1.78580
1230.04714	1.78695
1227.99364	1.78964
1225.94014	1.79169
1223.88664	1.79437
1221.83313	1.79834
1219.77963	1.80244
1217.72613	1.80736
1215.67263	1.81283
1213.61913	1.81738
1211.56563	1.82256
1209.51213	1.82852
1207.45863	1.83119
1205.40513	1.83019
1203.35162	1.82800
1201.29812	1.82396
1199.24462	1.81675
1197.19112	1.80721
1195.13762	1.79679
1193.08412	1.78728
1191.03062	1.78106
1188.97712	1.77747
1186.92362	1.77438
1184.87012	1.77191
1182.81661	1.76944
1180.76311	1.76401
1178.70961	1.75275
1176.65611	1.73705
1174.60261	1.72192
1172.54911	1.70903
1170.49561	1.69723
1168.44211	1.68647
1166.38861	1.67767
1164.33510	1.67173
1162.28160	1.66716
1160.22810	1.66347
1158.17460	1.66244
1156.12110	1.66283
1154.06760	1.66095
1152.01410	1.65542
1149.96060	1.64661
1147.90710	1.63564
1145.85359	1.62650
1143.80009	1.62181
1141.74659	1.61979
1139.69309	1.61919
1137.63959	1.62018
1135.58609	1.62265
1133.53259	1.62675
1131.47909	1.63184
1129.42559	1.63719
1127.37209	1.64403
1125.31858	1.65256
1123.26508	1.66067
1121.21158	1.66653
1119.15808	1.66986
1117.10458	1.67208
1115.05108	1.67410
1112.99758	1.67489
1110.94408	1.67550
1108.89058	1.67879
1106.83707	1.68406
1104.78357	1.68888
1102.73007	1.69342
1100.67657	1.69838
1098.62307	1.70172
1096.56957	1.70142
1094.51607	1.69980
1092.46257	1.70104
1090.40907	1.70552
1088.35556	1.71110
1086.30206	1.71641
1084.24856	1.72107
1082.19506	1.72530
1080.14156	1.72873
1078.08806	1.73155
1076.03456	1.73431
1073.98106	1.73685
1071.92756	1.73879
1069.87406	1.73914
1067.82055	1.73883
1065.76705	1.73966
1063.71355	1.74088
1061.66005	1.74147
1059.60655	1.74266
1057.55305	1.74545
1055.49955	1.74861
1053.44605	1.75160
1051.39255	1.75513
1049.33904	1.75941
1047.28554	1.76469
1045.23204	1.76936
1043.17854	1.77040
1041.12504	1.76828
1039.07154	1.76482
1037.01804	1.75942
1034.96454	1.75119
1032.91104	1.73997
1030.85754	1.72632
1028.80403	1.71056
1026.75053	1.69445
1024.69703	1.68205
1022.64353	1.67328
1020.59003	1.66697
1018.53653	1.66618
1016.48303	1.67069
1014.42953	1.67651
1012.37603	1.68247
1010.32252	1.68825
1008.26902	1.69342
1006.21552	1.69855
1004.16202	1.70342
1002.10852	1.70851
1000.05502	1.71434
998.00152	1.71897
995.94802	1.72156
993.89452	1.72322
991.84101	1.72406
989.78751	1.72493
987.73401	1.72811
985.68051	1.73308
983.62701	1.73495
981.57351	1.73238
979.52001	1.72931
977.46651	1.72750
975.41301	1.72670
973.35951	1.72692
971.30600	1.72689
969.25250	1.72572
967.19900	1.72459
965.14550	1.72485
963.09200	1.72685
961.03850	1.72889
958.98500	1.73040
956.93150	1.73276
954.87800	1.73465
952.82449	1.73544
950.77099	1.73625
948.71749	1.73695
946.66399	1.73804
944.61049	1.73916
942.55699	1.73885
940.50349	1.73776
938.44999	1.73699
936.39649	1.73681
934.34298	1.73718
932.28948	1.73749
930.23598	1.73841
928.18248	1.74069
926.12898	1.74324
924.07548	1.74540
922.02198	1.74611
919.96848	1.74535
917.91498	1.74496
915.86148	1.74531
913.80797	1.74662
911.75447	1.74764
909.70097	1.74710
907.64747	1.74679
905.59397	1.74797
903.54047	1.75051
901.48697	1.75156
899.43347	1.74996
897.37997	1.74941
895.32646	1.75122
893.27296	1.75297
891.21946	1.75253
889.16596	1.75152
887.11246	1.75230
885.05896	1.75357
883.00546	1.75364
880.95196	1.75224
878.89846	1.75169
876.84496	1.75491
874.79145	1.75966
872.73795	1.76102
870.68445	1.75729
868.63095	1.75093
866.57745	1.74563
864.52395	1.74200
862.47045	1.73698
860.41695	1.73117
858.36345	1.72981
856.30994	1.73267
854.25644	1.73590
852.20294	1.73917
850.14944	1.74310
848.09594	1.74738
846.04244	1.74974
843.98894	1.74873
841.93544	1.74738
839.88194	1.74685
837.82843	1.74499
835.77493	1.74293
833.72143	1.74387
831.66793	1.74526
829.61443	1.74502
827.56093	1.74530
825.50743	1.74380
823.45393	1.74239
821.40043	1.74676
819.34693	1.75244
817.29342	1.75395
815.23992	1.75387
813.18642	1.75458
811.13292	1.75393
809.07942	1.75278
807.02592	1.75522
804.97242	1.75737
802.91892	1.75592
800.86542	1.75767
798.81191	1.76352
796.75841	1.76647
794.70491	1.76723
792.65141	1.77007
790.59791	1.77268
788.54441	1.77027
786.49091	1.76434
784.43741	1.76174
782.38391	1.76394
780.33041	1.76657
778.27690	1.76796
776.22340	1.77064
774.16990	1.77384
772.11640	1.77392
770.06290	1.77233
768.00940	1.77060
765.95590	1.76624
763.90240	1.76019
761.84890	1.75521
759.79539	1.75087
757.74189	1.74882
755.68839	1.74924
753.63489	1.74766
751.58139	1.74557
749.52789	1.74703
747.47439	1.75148
745.42089	1.75616
743.36739	1.75858
741.31388	1.75831
739.26038	1.75886
737.20688	1.76348
735.15338	1.76835
733.09988	1.77076
731.04638	1.77170
728.99288	1.77060
726.93938	1.76851
724.88588	1.76822
722.83238	1.77103
720.77887	1.77058
718.72537	1.76464
716.67187	1.76254
714.61837	1.76646
712.56487	1.77258
710.51137	1.77942
708.45787	1.78484
706.40437	1.78761
704.35087	1.78918
702.29736	1.79079
700.24386	1.79084
698.19036	1.78926
696.13686	1.79447
694.08336	1.81184
692.02986	1.82831
689.97636	1.83147
687.92286	1.82980
685.86936	1.83195
683.81585	1.83035
681.76235	1.81532
679.70885	1.79114
677.65535	1.76888
675.60185	1.75483
673.54835	1.75060
671.49485	1.75327
669.44135	1.75770
667.38785	1.76101
665.33435	1.76249
663.28084	1.76348
661.22734	1.76377
659.17384	1.76043
657.12034	1.75633
655.06684	1.75639
653.01334	1.76069
650.95984	1.76757
648.90634	1.77065
646.85284	1.76863
644.79933	1.76817
642.74583	1.76955
640.69233	1.77204
638.63883	1.77824
636.58533	1.78307
634.53183	1.77980
632.47833	1.77583
630.42483	1.77619
628.37133	1.77476
626.31783	1.76921
624.26432	1.76421
622.21082	1.76448
620.15732	1.76721
618.10382	1.76638
616.05032	1.76374
613.99682	1.76484
611.94332	1.76824
609.88982	1.76808
607.83632	1.76507
605.78281	1.76392
603.72931	1.76205
601.67581	1.75817
599.62231	1.75504
597.56881	1.75018
595.51531	1.74382
593.46181	1.73947
591.40831	1.73692
589.35481	1.73611
587.30130	1.73680
585.24780	1.73667
583.19430	1.73453
581.14080	1.73432
579.08730	1.73887
577.03380	1.74121
574.98030	1.73999
572.92680	1.74085
570.87330	1.74079
568.81980	1.73670
566.76629	1.73261
564.71279	1.72989
562.65929	1.72882
560.60579	1.73238
558.55229	1.73658
556.49879	1.73822
554.44529	1.74123
552.39179	1.74421
550.33829	1.74493
548.28478	1.74466
546.23128	1.74058
544.17778	1.73355
542.12428	1.73122
540.07078	1.73284
538.01728	1.73033
535.96378	1.72482
533.91028	1.72274
531.85678	1.72346
529.80327	1.72472
527.74977	1.72755
525.69627	1.72662
523.64277	1.71707
521.58927	1.71127
519.53577	1.71710
517.48227	1.72160
515.42877	1.71651
513.37527	1.71418
511.32177	1.72381
509.26826	1.73653
507.21476	1.73917
505.16126	1.73278
503.10776	1.72200
501.05426	1.71030
499.00076	1.70607
496.94726	1.71174
494.89376	1.72009
492.84026	1.72334
490.78675	1.71787
488.73325	1.70708
486.67975	1.69957
484.62625	1.70304
482.57275	1.71498
480.51925	1.71658
478.46575	1.70378
476.41225	1.69945
474.35875	1.71319
472.30525	1.72319
470.25174	1.71153
468.19824	1.69349
466.14474	1.68638
464.09124	1.69236
462.03774	1.70152
459.98424	1.70100
457.93074	1.69527
455.87724	1.69848
453.82374	1.70568
451.77023	1.70660
449.71673	1.69866
447.66323	1.68804
445.60973	1.68406
443.55623	1.68798
441.50273	1.69435
439.44923	1.69943
437.39573	1.70908
435.34223	1.72403
433.28872	1.72847
431.23522	1.72176
429.18172	1.71378
427.12822	1.70128
425.07472	1.69043
423.02122	1.69212
420.96772	1.70003
418.91422	1.71301
416.86072	1.72689
414.80722	1.72653
412.75371	1.71039
410.70021	1.69141
408.64671	1.68850
406.59321	1.69220
404.53971	1.70171
402.48621	1.72264
400.43271	1.72817
398.37921	1.72172
