5997.96112,1.59955
5996.93142,1.60364
5995.90173,1.60351
5994.87204,1.58859
5993.84235,1.57535
5992.81265,1.57949
5991.78296,1.60316
5990.75327,1.62050
5989.72357,1.61570
5988.69388,1.60398
5987.66419,1.58747
5986.63450,1.56988
5985.60480,1.56514
5984.57511,1.57826
5983.54542,1.59702
5982.51572,1.60371
5981.48603,1.59796
5980.45634,1.59489
5979.42665,1.59671
5978.39695,1.58846
5977.36726,1.57206
5976.33757,1.57860
5975.30787,1.60639
5974.27818,1.63130
5973.24849,1.63957
5972.21879,1.63118
5971.18910,1.61868
5970.15941,1.61002
5969.12972,1.60839
5968.10002,1.60565
5967.07033,1.59430
5966.04064,1.58553
5965.01094,1.58506
5963.98125,1.59030
5962.95156,1.60448
5961.92187,1.61928
5960.89217,1.61372
5959.86248,1.60191
5958.83279,1.61048
5957.80309,1.62751
5956.77340,1.63164
5955.74371,1.62848
5954.71402,1.62837
5953.68432,1.62673
5952.65463,1.61638
5951.62494,1.60764
5950.59524,1.62010
5949.56555,1.64623
5948.53586,1.64214
5947.50617,1.61288
5946.47647,1.61128
5945.44678,1.63556
5944.41709,1.64391
5943.38739,1.63174
5942.35770,1.62681
5941.32801,1.62539
5940.29831,1.61017
5939.26862,1.59511
5938.23893,1.59535
5937.20924,1.59826
5936.17954,1.59528
5935.14985,1.60538
5934.12016,1.62618
5933.09046,1.62750
5932.06077,1.61058
5931.03108,1.59822
5930.00139,1.59422
5928.97169,1.59055
5927.94200,1.59442
5926.91231,1.60724
5925.88261,1.60485
5924.85292,1.60209
5923.82323,1.61517
5922.79354,1.62071
5921.76384,1.61879
5920.73415,1.61729
5919.70446,1.61092
5918.67476,1.61362
5917.64507,1.62819
5916.61538,1.63370
5915.58569,1.63782
5914.55599,1.65479
5913.52630,1.65831
5912.49661,1.64153
5911.46691,1.63174
5910.43722,1.63614
5909.40753,1.64528
5908.37784,1.64927
5907.34814,1.64702
5906.31845,1.64435
5905.28876,1.64761
5904.25906,1.65668
5903.22937,1.65375
5902.19968,1.64054
5901.16998,1.63576
5900.14029,1.63483
5899.11060,1.63244
5898.08091,1.63595
5897.05121,1.64213
5896.02152,1.64002
5894.99183,1.63036
5893.96213,1.62054
5892.93244,1.61500
5891.90275,1.61426
5890.87306,1.61826
5889.84336,1.63137
5888.81367,1.64394
5887.78398,1.63869
5886.75428,1.63214
5885.72459,1.64243
5884.69490,1.65507
5883.66521,1.66178
5882.63551,1.66399
5881.60582,1.65644
5880.57613,1.64221
5879.54643,1.63298
5878.51674,1.63461
5877.48705,1.64030
5876.45736,1.64456
5875.42766,1.64024
5874.39797,1.63061
5873.36828,1.62820
5872.33858,1.63235
5871.30889,1.64180
5870.27920,1.65278
5869.24951,1.65851
5868.21981,1.65879
5867.19012,1.65560
5866.16043,1.65017
5865.13073,1.65149
5864.10104,1.65788
5863.07135,1.65439
5862.04165,1.64313
5861.01196,1.63550
5859.98227,1.63154
5858.95258,1.63428
5857.92288,1.64641
5856.89319,1.65658
5855.86350,1.65883
5854.83380,1.66486
5853.80411,1.68142
5852.77442,1.68792
5851.74473,1.66688
5850.71503,1.64429
5849.68534,1.64467
5848.65565,1.65814
5847.62595,1.66357
5846.59626,1.65796
5845.56657,1.65716
5844.53688,1.66209
5843.50718,1.66173
5842.47749,1.65801
5841.44780,1.65232
5840.41810,1.64904
5839.38841,1.64819
5838.35872,1.64544
5837.32903,1.65004
5836.29933,1.65514
5835.26964,1.65175
5834.23995,1.65376
5833.21025,1.66081
5832.18056,1.66479
5831.15087,1.66681
5830.12118,1.66931
5829.09148,1.67275
5828.06179,1.67782
5827.03210,1.68051
5826.00240,1.67726
5824.97271,1.67822
5823.94302,1.68353
5822.91332,1.68062
5821.88363,1.66195
5820.85394,1.64164
5819.82425,1.64227
5818.79455,1.65210
5817.76486,1.66116
5816.73517,1.67261
5815.70547,1.67560
5814.67578,1.67361
5813.64609,1.67964
5812.61640,1.68534
5811.58670,1.68642
5810.55701,1.69155
5809.52732,1.69797
5808.49762,1.70286
5807.46793,1.70489
5806.43824,1.69352
5805.40855,1.67071
5804.37885,1.65752
5803.34916,1.65947
5802.31947,1.67207
5801.28977,1.68665
5800.26008,1.68880
5799.23039,1.68686
5798.20070,1.69375
5797.17100,1.69414
5796.14131,1.68345
5795.11162,1.68130
5794.08192,1.69458
5793.05223,1.70591
5792.02254,1.69610
5790.99285,1.67800
5789.96315,1.66563
5788.93346,1.66496
5787.90377,1.67970
5786.87407,1.69188
5785.84438,1.68741
5784.81469,1.68077
5783.78499,1.68280
5782.75530,1.69060
5781.72561,1.69286
5780.69592,1.68645
5779.66622,1.68611
5778.63653,1.68568
5777.60684,1.67735
5776.57714,1.68148
5775.54745,1.69944
5774.51776,1.70546
5773.48807,1.70085
5772.45837,1.69832
5771.42868,1.69621
5770.39899,1.69077
5769.36929,1.67710
5768.33960,1.67011
5767.30991,1.68026
5766.28022,1.68793
5765.25052,1.68086
5764.22083,1.67151
5763.19114,1.66988
5762.16144,1.67874
5761.13175,1.69262
5760.10206,1.69914
5759.07237,1.70095
5758.04267,1.70578
5757.01298,1.70632
5755.98329,1.69398
5754.95359,1.67938
5753.92390,1.67153
5752.89421,1.67039
5751.86452,1.67059
5750.83482,1.66477
5749.80513,1.66297
5748.77544,1.66880
5747.74574,1.67434
5746.71605,1.67712
5745.68636,1.68096
5744.65666,1.68735
5743.62697,1.68682
5742.59728,1.68392
5741.56759,1.68579
5740.53789,1.68127
5739.50820,1.67865
5738.47851,1.69331
5737.44881,1.70826
5736.41912,1.70534
5735.38943,1.68920
5734.35974,1.67531
5733.33004,1.67703
5732.30035,1.69255
5731.27066,1.70148
5730.24096,1.69506
5729.21127,1.68917
5728.18158,1.69109
5727.15189,1.68744
5726.12219,1.67959
5725.09250,1.68457
5724.06281,1.69146
5723.03311,1.68237
5722.00342,1.66674
5720.97373,1.66383
5719.94404,1.67707
5718.91434,1.69315
5717.88465,1.70165
5716.85496,1.69736
5715.82526,1.69032
5714.79557,1.69288
5713.76588,1.70072
5712.73619,1.70849
5711.70649,1.70986
5710.67680,1.70063
5709.64711,1.69023
5708.61741,1.68835
5707.58772,1.68903
5706.55803,1.68919
5705.52833,1.69023
5704.49864,1.69310
5703.46895,1.69677
5702.43926,1.69545
5701.40956,1.68485
5700.37987,1.67596
5699.35018,1.67686
5698.32048,1.68106
5697.29079,1.68584
5696.26110,1.69619
5695.23141,1.70112
5694.20171,1.69291
5693.17202,1.68667
5692.14233,1.68681
5691.11263,1.68681
5690.08294,1.68154
5689.05325,1.67714
5688.02356,1.68162
5686.99386,1.68913
5685.96417,1.69686
5684.93448,1.70643
5683.90478,1.71104
5682.87509,1.70412
5681.84540,1.69579
5680.81571,1.69406
5679.78601,1.69251
5678.75632,1.68480
5677.72663,1.67267
5676.69693,1.66703
5675.66724,1.67826
5674.63755,1.69173
5673.60786,1.69275
5672.57816,1.69080
5671.54847,1.68964
5670.51878,1.69016
5669.48908,1.69975
5668.45939,1.71057
5667.42970,1.71092
5666.40000,1.70173
5665.37031,1.69023
5664.34062,1.68983
5663.31093,1.70448
5662.28123,1.72075
5661.25154,1.73140
5660.22185,1.73455
5659.19215,1.72294
5658.16246,1.70191
5657.13277,1.69119
5656.10308,1.69380
5655.07338,1.69659
5654.04369,1.69758
5653.01400,1.69551
5651.98430,1.68468
5650.95461,1.67678
5649.92492,1.68101
5648.89523,1.68683
5647.86553,1.68651
5646.83584,1.68711
5645.80615,1.69659
5644.77645,1.70697
5643.74676,1.70593
5642.71707,1.69858
5641.68738,1.69295
5640.65768,1.69268
5639.62799,1.69298
5638.59830,1.68882
5637.56860,1.68747
5636.53891,1.69135
5635.50922,1.69603
5634.47952,1.69854
5633.44983,1.69987
5632.42014,1.70399
5631.39045,1.70238
5630.36075,1.69560
5629.33106,1.69509
5628.30137,1.69329
5627.27167,1.69070
5626.24198,1.69720
5625.21229,1.70749
5624.18260,1.71015
5623.15290,1.70291
5622.12321,1.69388
5621.09352,1.69310
5620.06382,1.69944
5619.03413,1.69578
5618.00444,1.68205
5616.97475,1.67683
5615.94505,1.68178
5614.91536,1.68668
5613.88567,1.68929
5612.85597,1.68902
5611.82628,1.68866
5610.79659,1.69670
5609.76690,1.70444
5608.73720,1.69289
5607.70751,1.67700
5606.67782,1.68562
5605.64812,1.71213
5604.61843,1.72704
5603.58874,1.72074
5602.55905,1.70824
5601.52935,1.70556
5600.49966,1.71123
5599.46997,1.71521
5598.44027,1.70871
5597.41058,1.68887
5596.38089,1.67634
5595.35119,1.67882
5594.32150,1.68509
5593.29181,1.69961
5592.26212,1.71258
5591.23242,1.70741
5590.20273,1.69438
5589.17304,1.69417
5588.14334,1.70527
5587.11365,1.70904
5586.08396,1.70677
5585.05427,1.70435
5584.02457,1.70136
5582.99488,1.70225
5581.96519,1.70668
5580.93549,1.70757
5579.90580,1.70741
5578.87611,1.70816
5577.84642,1.70957
5576.81672,1.71344
5575.78703,1.71110
5574.75734,1.70650
5573.72764,1.71024
5572.69795,1.71370
5571.66826,1.71141
5570.63857,1.71722
5569.60887,1.72626
5568.57918,1.72664
5567.54949,1.72737
5566.51979,1.72037
5565.49010,1.70900
5564.46041,1.71237
5563.43072,1.71526
5562.40102,1.71001
5561.37133,1.70670
5560.34164,1.70121
5559.31194,1.69833
5558.28225,1.70714
5557.25256,1.72009
5556.22286,1.71975
5555.19317,1.71432
5554.16348,1.71598
5553.13379,1.71153
5552.10409,1.70592
5551.07440,1.71086
5550.04471,1.71397
5549.01501,1.70952
5547.98532,1.70486
5546.95563,1.70516
5545.92594,1.70936
5544.89624,1.71186
5543.86655,1.71004
5542.83686,1.70776
5541.80716,1.70657
5540.77747,1.70870
5539.74778,1.71141
5538.71809,1.71546
5537.68839,1.73128
5536.65870,1.74096
5535.62901,1.72719
5534.59931,1.71301
5533.56962,1.71186
5532.53993,1.71926
5531.51024,1.72436
5530.48054,1.72362
5529.45085,1.72373
5528.42116,1.72210
5527.39146,1.71903
5526.36177,1.72065
5525.33208,1.71863
5524.30239,1.71429
5523.27269,1.71620
5522.24300,1.71418
5521.21331,1.70655
5520.18361,1.70395
5519.15392,1.70774
5518.12423,1.71366
5517.09453,1.71790
5516.06484,1.71819
5515.03515,1.71918
5514.00546,1.72400
5512.97576,1.72141
5511.94607,1.71190
5510.91638,1.71308
5509.88668,1.72800
5508.85699,1.74266
5507.82730,1.74201
5506.79761,1.73003
5505.76791,1.72441
5504.73822,1.72640
5503.70853,1.72118
5502.67883,1.70402
5501.64914,1.69637
5500.61945,1.70797
5499.58976,1.72420
5498.56006,1.73125
5497.53037,1.72141
5496.50068,1.70385
5495.47098,1.69361
5494.44129,1.69615
5493.41160,1.70411
5492.38191,1.70695
5491.35221,1.70583
5490.32252,1.70600
5489.29283,1.70391
5488.26313,1.70116
5487.23344,1.71429
5486.20375,1.73118
5485.17406,1.72701
5484.14436,1.71552
5483.11467,1.70631
5482.08498,1.69802
5481.05528,1.70135
5480.02559,1.71126
5478.99590,1.71710
5477.96620,1.71849
5476.93651,1.71625
5475.90682,1.71434
5474.87713,1.71237
5473.84743,1.71734
5472.81774,1.73020
5471.78805,1.73271
5470.75835,1.73097
5469.72866,1.73827
5468.69897,1.74173
5467.66928,1.73267
5466.63958,1.71989
5465.60989,1.71341
5464.58020,1.71373
5463.55050,1.71908
5462.52081,1.72544
5461.49112,1.72560
5460.46143,1.72695
5459.43173,1.72805
5458.40204,1.72088
5457.37235,1.71507
5456.34265,1.71403
5455.31296,1.71496
5454.28327,1.71912
5453.25358,1.72689
5452.22388,1.73702
5451.19419,1.74240
5450.16450,1.73244
5449.13480,1.72072
5448.10511,1.72173
5447.07542,1.72887
5446.04573,1.73175
5445.01603,1.72517
5443.98634,1.72120
5442.95665,1.73098
5441.92695,1.74400
5440.89726,1.74319
5439.86757,1.73224
5438.83787,1.72543
5437.80818,1.72710
5436.77849,1.72724
5435.74880,1.72015
5434.71910,1.71276
5433.68941,1.71688
5432.65972,1.72721
5431.63002,1.72964
5430.60033,1.72290
5429.57064,1.72056
5428.54095,1.72567
5427.51125,1.72558
5426.48156,1.72754
5425.45187,1.73100
5424.42217,1.72755
5423.39248,1.71759
5422.36279,1.71010
5421.33310,1.71448
5420.30340,1.71952
5419.27371,1.71926
5418.24402,1.71932
5417.21432,1.72370
5416.18463,1.73783
5415.15494,1.74890
5414.12525,1.73603
5413.09555,1.72512
5412.06586,1.72977
5411.03617,1.72981
5410.00647,1.72565
5408.97678,1.72639
5407.94709,1.73246
5406.91740,1.73924
5405.88770,1.74035
5404.85801,1.73368
5403.82832,1.72449
5402.79862,1.72421
5401.76893,1.72860
5400.73924,1.72174
5399.70954,1.70807
5398.67985,1.69888
5397.65016,1.70076
5396.62047,1.72183
5395.59077,1.74120
5394.56108,1.73580
5393.53139,1.72114
5392.50169,1.71646
5391.47200,1.71716
5390.44231,1.71707
5389.41262,1.71862
5388.38292,1.72728
5387.35323,1.74291
5386.32354,1.74413
5385.29384,1.72778
5384.26415,1.72136
5383.23446,1.71877
5382.20477,1.71388
5381.17507,1.72001
5380.14538,1.73047
5379.11569,1.73543
5378.08599,1.73546
5377.05630,1.73473
5376.02661,1.73716
5374.99692,1.73929
5373.96722,1.73940
5372.93753,1.73547
5371.90784,1.72839
5370.87814,1.72504
5369.84845,1.72486
5368.81876,1.71872
5367.78906,1.71299
5366.75937,1.71370
5365.72968,1.71243
5364.69999,1.71440
5363.67029,1.73184
5362.64060,1.74733
5361.61091,1.74118
5360.58121,1.72924
5359.55152,1.73132
5358.52183,1.73913
5357.49214,1.73560
5356.46244,1.72371
5355.43275,1.71989
5354.40306,1.72620
5353.37336,1.73785
5352.34367,1.75089
5351.31398,1.75285
5350.28429,1.74530
5349.25459,1.74162
5348.22490,1.73697
5347.19521,1.72510
5346.16551,1.71521
5345.13582,1.71477
5344.10613,1.72303
5343.07644,1.73682
5342.04674,1.74490
5341.01705,1.74233
5339.98736,1.73964
5338.95766,1.74101
5337.92797,1.74455
5336.89828,1.75098
5335.86859,1.75041
5334.83889,1.74315
5333.80920,1.74517
5332.77951,1.75019
5331.74981,1.75015
5330.72012,1.75155
5329.69043,1.74918
5328.66073,1.74216
5327.63104,1.74267
5326.60135,1.74877
5325.57166,1.74588
5324.54196,1.74024
5323.51227,1.73714
5322.48258,1.73887
5321.45288,1.74282
5320.42319,1.74012
5319.39350,1.74228
5318.36381,1.75930
5317.33411,1.77040
5316.30442,1.76039
5315.27473,1.74912
5314.24503,1.74650
5313.21534,1.74343
5312.18565,1.74396
5311.15596,1.75035
5310.12626,1.75196
5309.09657,1.74834
5308.06688,1.75244
5307.03718,1.76430
5306.00749,1.76447
5304.97780,1.75570
5303.94811,1.75157
5302.91841,1.75156
5301.88872,1.75244
5300.85903,1.75708
5299.82933,1.76950
5298.79964,1.78159
5297.76995,1.78091
5296.74026,1.76791
5295.71056,1.75906
5294.68087,1.76488
5293.65118,1.77295
5292.62148,1.77548
5291.59179,1.77487
5290.56210,1.77442
5289.53240,1.77758
5288.50271,1.78024
5287.47302,1.78363
5286.44333,1.78754
5285.41363,1.77596
5284.38394,1.75686
5283.35425,1.75401
5282.32455,1.76890
5281.29486,1.79504
5280.26517,1.81203
5279.23548,1.80334
5278.20578,1.78279
5277.17609,1.77042
5276.14640,1.77558
5275.11670,1.79191
5274.08701,1.80707
5273.05732,1.81069
5272.02763,1.80273
5270.99793,1.80013
5269.96824,1.81118
5268.93855,1.81638
5267.90885,1.80888
5266.87916,1.80050
5265.84947,1.79468
5264.81978,1.79571
5263.79008,1.80511
5262.76039,1.81093
5261.73070,1.80927
5260.70100,1.80762
5259.67131,1.80642
5258.64162,1.81768
5257.61193,1.84536
5256.58223,1.86330
5255.55254,1.85902
5254.52285,1.84720
5253.49315,1.84516
5252.46346,1.85059
5251.43377,1.85069
5250.40407,1.84738
5249.37438,1.83717
5248.34469,1.81604
5247.31500,1.80184
5246.28530,1.80602
5245.25561,1.82099
5244.22592,1.83076
5243.19622,1.83055
5242.16653,1.83426
5241.13684,1.84410
5240.10715,1.85498
5239.07745,1.85710
5238.04776,1.84643
5237.01807,1.83779
5235.98837,1.84272
5234.95868,1.85084
5233.92899,1.85049
5232.89930,1.84671
5231.86960,1.84230
5230.83991,1.84400
5229.81022,1.85752
5228.78052,1.87019
5227.75083,1.86997
5226.72114,1.86599
5225.69145,1.86135
5224.66175,1.85363
5223.63206,1.85038
5222.60237,1.85479
5221.57267,1.86558
5220.54298,1.88043
5219.51329,1.88659
5218.48360,1.87628
5217.45390,1.86816
5216.42421,1.87761
5215.39452,1.88373
5214.36482,1.86727
5213.33513,1.86158
5212.30544,1.88288
5211.27574,1.89830
5210.24605,1.88878
5209.21636,1.86929
5208.18667,1.85861
5207.15697,1.85345
5206.12728,1.84266
5205.09759,1.83705
5204.06789,1.85304
5203.03820,1.87761
5202.00851,1.88570
5200.97882,1.87896
5199.94912,1.87285
5198.91943,1.86968
5197.88974,1.87271
5196.86004,1.87976
5195.83035,1.88302
5194.80066,1.88734
5193.77097,1.89857
5192.74127,1.91060
5191.71158,1.90666
5190.68189,1.89410
5189.65219,1.89814
5188.62250,1.90899
5187.59281,1.89964
5186.56312,1.88631
5185.53342,1.88889
5184.50373,1.89480
5183.47404,1.88991
5182.44434,1.88039
5181.41465,1.87252
5180.38496,1.87477
5179.35527,1.88749
5178.32557,1.89852
5177.29588,1.90035
5176.26619,1.89123
5175.23649,1.87837
5174.20680,1.87508
5173.17711,1.88169
5172.14741,1.89250
5171.11772,1.90510
5170.08803,1.90813
5169.05834,1.89942
5168.02864,1.89398
5166.99895,1.89578
5165.96926,1.89729
5164.93956,1.90030
5163.90987,1.90398
5162.88018,1.90299
5161.85049,1.90359
5160.82079,1.91030
5159.79110,1.91812
5158.76141,1.91548
5157.73171,1.90368
5156.70202,1.89882
5155.67233,1.90369
5154.64264,1.90688
5153.61294,1.89947
5152.58325,1.88837
5151.55356,1.88921
5150.52386,1.90446
5149.49417,1.92114
5148.46448,1.92036
5147.43479,1.89943
5146.40509,1.87641
5145.37540,1.86703
5144.34571,1.87022
5143.31601,1.87603
5142.28632,1.88817
5141.25663,1.91371
5140.22694,1.93057
5139.19724,1.91912
5138.16755,1.90848
5137.13786,1.91064
5136.10816,1.90270
5135.07847,1.88893
5134.04878,1.88493
5133.01908,1.89110
5131.98939,1.90223
5130.95970,1.91499
5129.93001,1.92311
5128.90031,1.92444
5127.87062,1.91954
5126.84093,1.90793
5125.81123,1.90217
5124.78154,1.90467
5123.75185,1.90629
5122.72216,1.90921
5121.69246,1.91339
5120.66277,1.90802
5119.63308,1.90241
5118.60338,1.90220
5117.57369,1.89337
5116.54400,1.87807
5115.51431,1.87595
5114.48461,1.88583
5113.45492,1.89103
5112.42523,1.89111
5111.39553,1.88702
5110.36584,1.88150
5109.33615,1.88156
5108.30646,1.88017
5107.27676,1.87528
5106.24707,1.87452
5105.21738,1.88211
5104.18768,1.89725
5103.15799,1.90592
5102.12830,1.89912
5101.09861,1.88973
5100.06891,1.88930
5099.03922,1.89592
5098.00953,1.89630
5096.97983,1.88503
5095.95014,1.87821
5094.92045,1.87953
5093.89075,1.87639
5092.86106,1.87088
5091.83137,1.87060
5090.80168,1.87073
5089.77198,1.87050
5088.74229,1.87480
5087.71260,1.87743
5086.68290,1.88024
5085.65321,1.88884
5084.62352,1.88949
5083.59383,1.88224
5082.56413,1.88386
5081.53444,1.88431
5080.50475,1.86983
5079.47505,1.85740
5078.44536,1.85676
5077.41567,1.85326
5076.38598,1.84674
5075.35628,1.85550
5074.32659,1.86915
5073.29690,1.86972
5072.26720,1.87206
5071.23751,1.88012
5070.20782,1.88040
5069.17813,1.87889
5068.14843,1.88533
5067.11874,1.88786
5066.08905,1.87309
5065.05935,1.85451
5064.02966,1.85069
5062.99997,1.86348
5061.97027,1.87882
5060.94058,1.88112
5059.91089,1.87239
5058.88120,1.86899
5057.85150,1.87455
5056.82181,1.87541
5055.79212,1.86530
5054.76242,1.85006
5053.73273,1.84364
5052.70304,1.85709
5051.67335,1.87742
5050.64365,1.88051
5049.61396,1.87116
5048.58427,1.86478
5047.55457,1.85938
5046.52488,1.85382
5045.49519,1.84766
5044.46550,1.83973
5043.43580,1.83289
5042.40611,1.83788
5041.37642,1.85371
5040.34672,1.86502
5039.31703,1.86292
5038.28734,1.85113
5037.25765,1.84729
5036.22795,1.85665
5035.19826,1.86332
5034.16857,1.86137
5033.13887,1.86292
5032.10918,1.86937
5031.07949,1.86702
5030.04980,1.85802
5029.02010,1.85260
5027.99041,1.85167
5026.96072,1.85336
5025.93102,1.85572
5024.90133,1.85767
5023.87164,1.85475
5022.84194,1.84598
5021.81225,1.84034
5020.78256,1.83986
5019.75287,1.84020
5018.72317,1.84254
5017.69348,1.84529
5016.66379,1.84642
5015.63409,1.84802
5014.60440,1.84895
5013.57471,1.85275
5012.54502,1.85691
5011.51532,1.85097
5010.48563,1.84532
5009.45594,1.84891
5008.42624,1.85230
5007.39655,1.84646
5006.36686,1.83332
5005.33717,1.82756
5004.30747,1.83095
5003.27778,1.83075
5002.24809,1.82599
5001.21839,1.82299
5000.18870,1.82344
4999.15901,1.82314
4998.12932,1.81870
4997.09962,1.81504
4996.06993,1.81725
4995.04024,1.82833
4994.01054,1.83975
4992.98085,1.83648
4991.95116,1.82789
4990.92147,1.82503
4989.89177,1.82229
4988.86208,1.82102
4987.83239,1.82346
4986.80269,1.82789
4985.77300,1.83185
4984.74331,1.83102
4983.71361,1.82706
4982.68392,1.82928
4981.65423,1.83611
4980.62454,1.83240
4979.59484,1.81822
4978.56515,1.81367
4977.53546,1.82344
4976.50576,1.83451
4975.47607,1.84108
4974.44638,1.84196
4973.41669,1.83623
4972.38699,1.82781
4971.35730,1.82306
4970.32761,1.82377
4969.29791,1.82428
4968.26822,1.82118
4967.23853,1.81940
4966.20884,1.81602
4965.17914,1.80933
4964.14945,1.80889
4963.11976,1.81383
4962.09006,1.82499
4961.06037,1.83953
4960.03068,1.83879
4959.00099,1.83106
4957.97129,1.83283
4956.94160,1.83804
4955.91191,1.83661
4954.88221,1.83266
4953.85252,1.83126
4952.82283,1.83348
4951.79314,1.83992
4950.76344,1.84281
4949.73375,1.83689
4948.70406,1.82693
4947.67436,1.82405
4946.64467,1.83018
4945.61498,1.83663
4944.58528,1.83838
4943.55559,1.83300
4942.52590,1.82562
4941.49621,1.82178
4940.46651,1.82495
4939.43682,1.83421
4938.40713,1.83660
4937.37743,1.82829
4936.34774,1.81882
4935.31805,1.81115
4934.28836,1.80563
4933.25866,1.80782
4932.22897,1.81973
4931.19928,1.83242
4930.16958,1.83644
4929.13989,1.83601
4928.11020,1.83659
4927.08051,1.83404
4926.05081,1.82909
4925.02112,1.82405
4923.99143,1.81786
4922.96173,1.81759
4921.93204,1.82460
4920.90235,1.82778
4919.87266,1.82472
4918.84296,1.82094
4917.81327,1.81950
4916.78358,1.82142
4915.75388,1.82448
4914.72419,1.82634
4913.69450,1.82444
4912.66481,1.82405
4911.63511,1.83266
4910.60542,1.84039
4909.57573,1.83795
4908.54603,1.83718
4907.51634,1.84111
4906.48665,1.83873
4905.45695,1.83132
4904.42726,1.82831
4903.39757,1.83394
4902.36788,1.83848
4901.33818,1.83249
4900.30849,1.82516
4899.27880,1.82586
4898.24910,1.83099
4897.21941,1.83176
4896.18972,1.83075
4895.16003,1.83745
4894.13033,1.84661
4893.10064,1.84344
4892.07095,1.83321
4891.04125,1.82706
4890.01156,1.82338
4888.98187,1.82714
4887.95218,1.83655
4886.92248,1.83805
4885.89279,1.83254
4884.86310,1.82988
4883.83340,1.83519
4882.80371,1.84014
4881.77402,1.83404
4880.74433,1.82538
4879.71463,1.82108
4878.68494,1.81759
4877.65525,1.81658
4876.62555,1.82294
4875.59586,1.83556
4874.56617,1.84298
4873.53648,1.83941
4872.50678,1.83155
4871.47709,1.82650
4870.44740,1.82486
4869.41770,1.82313
4868.38801,1.82358
4867.35832,1.82893
4866.32862,1.83364
4865.29893,1.83541
4864.26924,1.83719
4863.23955,1.84472
4862.20985,1.85281
4861.18016,1.84706
4860.15047,1.83785
4859.12077,1.83930
4858.09108,1.84002
4857.06139,1.83313
4856.03170,1.82679
4855.00200,1.82780
4853.97231,1.83421
4852.94262,1.83495
4851.91292,1.82928
4850.88323,1.83093
4849.85354,1.83841
4848.82385,1.84480
4847.79415,1.85181
4846.76446,1.85034
4845.73477,1.83858
4844.70507,1.83201
4843.67538,1.83164
4842.64569,1.83019
4841.61600,1.83224
4840.58630,1.83582
4839.55661,1.83711
4838.52692,1.83971
4837.49722,1.83789
4836.46753,1.83200
4835.43784,1.82813
4834.40815,1.82592
4833.37845,1.82607
4832.34876,1.82710
4831.31907,1.82450
4830.28937,1.82188
4829.25968,1.82724
4828.22999,1.83652
4827.20029,1.83614
4826.17060,1.82792
4825.14091,1.82496
4824.11122,1.82563
4823.08152,1.82483
4822.05183,1.82601
4821.02214,1.83102
4819.99244,1.83706
4818.96275,1.84078
4817.93306,1.84586
4816.90337,1.85227
4815.87367,1.85202
4814.84398,1.84441
4813.81429,1.83318
4812.78459,1.82218
4811.75490,1.82147
4810.72521,1.83509
4809.69552,1.84703
4808.66582,1.84766
4807.63613,1.84523
4806.60644,1.84085
4805.57674,1.83839
4804.54705,1.84357
4803.51736,1.84693
4802.48767,1.84274
4801.45797,1.84025
4800.42828,1.84151
4799.39859,1.84062
4798.36889,1.84094
4797.33920,1.84541
4796.30951,1.84685
4795.27982,1.84114
4794.25012,1.83601
4793.22043,1.83902
4792.19074,1.84125
4791.16104,1.83571
4790.13135,1.83566
4789.10166,1.84309
4788.07196,1.84313
4787.04227,1.83837
4786.01258,1.83853
4784.98289,1.84253
4783.95319,1.84779
4782.92350,1.85187
4781.89381,1.85162
4780.86411,1.85085
4779.83442,1.85036
4778.80473,1.84493
4777.77504,1.83703
4776.74534,1.83293
4775.71565,1.83798
4774.68596,1.84499
4773.65626,1.84473
4772.62657,1.84437
4771.59688,1.84561
4770.56719,1.84270
4769.53749,1.84036
4768.50780,1.84502
4767.47811,1.85056
4766.44841,1.84997
4765.41872,1.84775
4764.38903,1.84612
4763.35934,1.84602
4762.32964,1.85178
4761.29995,1.85640
4760.27026,1.85571
4759.24056,1.85422
4758.21087,1.84967
4757.18118,1.84201
4756.15148,1.83552
4755.12179,1.83507
4754.09210,1.84216
4753.06241,1.85039
4752.03271,1.85080
4751.00302,1.84765
4749.97333,1.84762
4748.94363,1.84414
4747.91394,1.83849
4746.88425,1.84060
4745.85456,1.84707
4744.82486,1.84601
4743.79517,1.84227
4742.76548,1.84728
4741.73578,1.85241
4740.70609,1.84824
4739.67640,1.84433
4738.64671,1.84724
4737.61701,1.84960
4736.58732,1.84510
4735.55763,1.84110
4734.52793,1.84255
4733.49824,1.84284
4732.46855,1.84276
4731.43886,1.84606
4730.40916,1.84758
4729.37947,1.84716
4728.34978,1.85049
4727.32008,1.85953
4726.29039,1.86995
4725.26070,1.87205
4724.23101,1.86428
4723.20131,1.85738
4722.17162,1.85307
4721.14193,1.84818
4720.11223,1.84792
4719.08254,1.85490
4718.05285,1.86341
4717.02315,1.86598
4715.99346,1.86365
4714.96377,1.86024
4713.93408,1.85725
4712.90438,1.85821
4711.87469,1.86128
4710.84500,1.85854
4709.81530,1.85002
4708.78561,1.84831
4707.75592,1.85359
4706.72623,1.85383
4705.69653,1.85254
4704.66684,1.85402
4703.63715,1.85240
4702.60745,1.84705
4701.57776,1.84263
4700.54807,1.84159
4699.51838,1.84213
4698.48868,1.84567
4697.45899,1.85106
4696.42930,1.84924
4695.39960,1.84371
4694.36991,1.84581
4693.34022,1.85565
4692.31053,1.86067
4691.28083,1.85458
4690.25114,1.84878
4689.22145,1.84956
4688.19175,1.85319
4687.16206,1.86182
4686.13237,1.87228
4685.10268,1.87310
4684.07298,1.86533
4683.04329,1.85860
4682.01360,1.85587
4680.98390,1.85680
4679.95421,1.86076
4678.92452,1.86439
4677.89482,1.86484
4676.86513,1.86049
4675.83544,1.85544
4674.80575,1.85613
4673.77605,1.86069
4672.74636,1.86443
4671.71667,1.86388
4670.68697,1.86181
4669.65728,1.86255
4668.62759,1.86250
4667.59790,1.86005
4666.56820,1.85850
4665.53851,1.85736
4664.50882,1.85504
4663.47912,1.85464
4662.44943,1.85776
4661.41974,1.86021
4660.39005,1.85791
4659.36035,1.85662
4658.33066,1.86201
4657.30097,1.86762
4656.27127,1.86761
4655.24158,1.86205
4654.21189,1.85432
4653.18220,1.84998
4652.15250,1.84792
4651.12281,1.84913
4650.09312,1.85595
4649.06342,1.85925
4648.03373,1.85361
4647.00404,1.84875
4645.97435,1.85174
4644.94465,1.85540
4643.91496,1.85477
4642.88527,1.85532
4641.85557,1.85950
4640.82588,1.86385
4639.79619,1.86314
4638.76649,1.85899
4637.73680,1.85701
4636.70711,1.85671
4635.67742,1.85881
4634.64772,1.86538
4633.61803,1.86951
4632.58834,1.86632
4631.55864,1.86427
4630.52895,1.86687
4629.49926,1.86670
4628.46957,1.86074
4627.43987,1.85358
4626.41018,1.85148
4625.38049,1.85475
4624.35079,1.85651
4623.32110,1.85580
4622.29141,1.85577
4621.26172,1.85542
4620.23202,1.85574
4619.20233,1.85696
4618.17264,1.85427
4617.14294,1.85053
4616.11325,1.85172
4615.08356,1.85726
4614.05387,1.86226
4613.02417,1.86380
4611.99448,1.86031
4610.96479,1.85554
4609.93509,1.85560
4608.90540,1.85496
4607.87571,1.85122
4606.84602,1.84736
4605.81632,1.84543
4604.78663,1.84807
4603.75694,1.85067
4602.72724,1.84966
4601.69755,1.85020
4600.66786,1.85578
4599.63816,1.86041
4598.60847,1.85916
4597.57878,1.85633
4596.54909,1.85581
4595.51939,1.85638
4594.48970,1.85844
4593.46001,1.86153
4592.43031,1.86057
4591.40062,1.85463
4590.37093,1.84831
4589.34124,1.84818
4588.31154,1.85388
4587.28185,1.85683
4586.25216,1.85597
4585.22246,1.85566
4584.19277,1.85347
4583.16308,1.84634
4582.13339,1.84089
4581.10369,1.84602
4580.07400,1.85604
4579.04431,1.85938
4578.01461,1.85812
4576.98492,1.85345
4575.95523,1.84413
4574.92554,1.84098
4573.89584,1.84725
4572.86615,1.85006
4571.83646,1.84406
4570.80676,1.83861
4569.77707,1.84234
4568.74738,1.85161
4567.71769,1.85709
4566.68799,1.85807
4565.65830,1.85850
4564.62861,1.85913
4563.59891,1.85762
4562.56922,1.85134
4561.53953,1.84412
4560.50983,1.84078
4559.48014,1.84196
4558.45045,1.84729
4557.42076,1.85144
4556.39106,1.84927
4555.36137,1.84645
4554.33168,1.84849
4553.30198,1.85040
4552.27229,1.84859
4551.24260,1.84691
4550.21291,1.84962
4549.18321,1.85540
4548.15352,1.85676
4547.12383,1.85103
4546.09413,1.84681
4545.06444,1.84971
4544.03475,1.85510
4543.00506,1.85884
4541.97536,1.85788
4540.94567,1.85248
4539.91598,1.84965
4538.88628,1.85223
4537.85659,1.85721
4536.82690,1.86059
4535.79721,1.85956
4534.76751,1.85736
4533.73782,1.85609
4532.70813,1.85121
4531.67843,1.84641
4530.64874,1.84889
4529.61905,1.85540
4528.58936,1.85886
4527.55966,1.85829
4526.52997,1.86017
4525.50028,1.86360
4524.47058,1.86362
4523.44089,1.86177
4522.41120,1.85744
4521.38150,1.85200
4520.35181,1.85012
4519.32212,1.85251
4518.29243,1.85608
4517.26273,1.85480
4516.23304,1.84972
4515.20335,1.84745
4514.17365,1.84949
4513.14396,1.85362
4512.11427,1.85552
4511.08458,1.85317
4510.05488,1.84936
4509.02519,1.84848
4507.99550,1.85111
4506.96580,1.85455
4505.93611,1.85878
4504.90642,1.86094
4503.87673,1.85808
4502.84703,1.85346
4501.81734,1.85314
4500.78765,1.86005
4499.75795,1.86506
4498.72826,1.86075
4497.69857,1.85451
4496.66888,1.85371
4495.63918,1.85832
4494.60949,1.86161
4493.57980,1.85923
4492.55010,1.85691
4491.52041,1.85580
4490.49072,1.85127
4489.46103,1.84497
4488.43133,1.84312
4487.40164,1.84691
4486.37195,1.85579
4485.34225,1.86395
4484.31256,1.86291
4483.28287,1.85977
4482.25317,1.86092
4481.22348,1.86317
4480.19379,1.86363
4479.16410,1.86194
4478.13440,1.86385
4477.10471,1.86824
4476.07502,1.86780
4475.04532,1.86378
4474.01563,1.86136
4472.98594,1.86430
4471.95625,1.87029
4470.92655,1.86999
4469.89686,1.86330
4468.86717,1.86209
4467.83747,1.86903
4466.80778,1.87418
4465.77809,1.87136
4464.74840,1.86457
4463.71870,1.86280
4462.68901,1.86849
4461.65932,1.87362
4460.62962,1.87267
4459.59993,1.86764
4458.57024,1.86497
4457.54055,1.87048
4456.51085,1.87915
4455.48116,1.88021
4454.45147,1.87636
4453.42177,1.87610
4452.39208,1.87703
4451.36239,1.87751
4450.33269,1.88122
4449.30300,1.88599
4448.27331,1.88755
4447.24362,1.88779
4446.21392,1.89015
4445.18423,1.89206
4444.15454,1.88977
4443.12484,1.88793
4442.09515,1.89006
4441.06546,1.89299
4440.03577,1.89790
4439.00607,1.90270
4437.97638,1.90364
4436.94669,1.90537
4435.91699,1.90542
4434.88730,1.90018
4433.85761,1.89795
4432.82792,1.89985
4431.79822,1.90053
4430.76853,1.90267
4429.73884,1.90739
4428.70914,1.91232
4427.67945,1.91726
4426.64976,1.91935
4425.62007,1.91665
4424.59037,1.91434
4423.56068,1.91651
4422.53099,1.91895
4421.50129,1.91668
4420.47160,1.91273
4419.44191,1.91217
4418.41222,1.91647
4417.38252,1.92237
4416.35283,1.92400
4415.32314,1.92116
4414.29344,1.91858
4413.26375,1.92136
4412.23406,1.92968
4411.20436,1.93752
4410.17467,1.94314
4409.14498,1.94548
4408.11529,1.94193
4407.08559,1.93659
4406.05590,1.93516
4405.02621,1.93793
4403.99651,1.94049
4402.96682,1.93895
4401.93713,1.93555
4400.90744,1.93514
4399.87774,1.93880
4398.84805,1.94396
4397.81836,1.94858
4396.78866,1.95116
4395.75897,1.95030
4394.72928,1.94713
4393.69959,1.94787
4392.66989,1.95538
4391.64020,1.96053
4390.61051,1.96017
4389.58081,1.96219
4388.55112,1.96600
4387.52143,1.96683
4386.49174,1.96281
4385.46204,1.95681
4384.43235,1.95699
4383.40266,1.96177
4382.37296,1.96155
4381.34327,1.96151
4380.31358,1.96859
4379.28389,1.97384
4378.25419,1.97337
4377.22450,1.97574
4376.19481,1.98325
4375.16511,1.98807
4374.13542,1.98688
4373.10573,1.98645
4372.07603,1.98956
4371.04634,1.99094
4370.01665,1.98917
4368.98696,1.98728
4367.95726,1.98589
4366.92757,1.98579
4365.89788,1.98975
4364.86818,1.99693
4363.83849,2.00116
4362.80880,2.00025
4361.77911,2.00085
4360.74941,2.00831
4359.71972,2.01604
4358.69003,2.01673
4357.66033,2.01296
4356.63064,2.01187
4355.60095,2.01622
4354.57126,2.02162
4353.54156,2.02777
4352.51187,2.03125
4351.48218,2.02785
4350.45248,2.02445
4349.42279,2.02456
4348.39310,2.02800
4347.36341,2.03129
4346.33371,2.02986
4345.30402,2.03132
4344.27433,2.03684
4343.24463,2.03709
4342.21494,2.03810
4341.18525,2.04317
4340.15556,2.04176
4339.12586,2.03816
4338.09617,2.04113
4337.06648,2.04408
4336.03678,2.04322
4335.00709,2.03803
4333.97740,2.03309
4332.94770,2.03657
4331.91801,2.03839
4330.88832,2.03366
4329.85863,2.03431
4328.82893,2.04059
4327.79924,2.04130
4326.76955,2.03758
4325.73985,2.03805
4324.71016,2.03899
4323.68047,2.03525
4322.65078,2.03045
4321.62108,2.02665
4320.59139,2.02115
4319.56170,2.01532
4318.53200,2.01160
4317.50231,2.01039
4316.47262,2.00961
4315.44293,2.00527
4314.41323,2.00022
4313.38354,1.99636
4312.35385,1.99150
4311.32415,1.99007
4310.29446,1.99514
4309.26477,2.00113
4308.23508,2.00248
4307.20538,1.99867
4306.17569,1.99404
4305.14600,1.99079
4304.11630,1.98722
4303.08661,1.98523
4302.05692,1.98627
4301.02723,1.98607
4299.99753,1.98286
4298.96784,1.98083
4297.93815,1.98208
4296.90845,1.98546
4295.87876,1.98736
4294.84907,1.98456
4293.81937,1.98310
4292.78968,1.98767
4291.75999,1.99173
4290.73030,1.99312
4289.70060,1.99281
4288.67091,1.98942
4287.64122,1.98723
4286.61152,1.98915
4285.58183,1.99394
4284.55214,1.99721
4283.52245,1.99729
4282.49275,1.99777
4281.46306,1.99929
4280.43337,2.00240
4279.40367,2.00555
4278.37398,2.00699
4277.34429,2.00989
4276.31460,2.01197
4275.28490,2.00945
4274.25521,2.00581
4273.22552,2.00486
4272.19582,2.00781
4271.16613,2.01162
4270.13644,2.01398
4269.10675,2.01586
4268.07705,2.01637
4267.04736,2.01542
4266.01767,2.01531
4264.98797,2.01600
4263.95828,2.01425
4262.92859,2.01176
4261.89890,2.01133
4260.86920,2.01197
4259.83951,2.01384
4258.80982,2.01907
4257.78012,2.02614
4256.75043,2.02539
4255.72074,2.01757
4254.69104,2.01418
4253.66135,2.01634
4252.63166,2.01856
4251.60197,2.02030
4250.57227,2.02161
4249.54258,2.01813
4248.51289,2.01221
4247.48319,2.00842
4246.45350,2.00491
4245.42381,2.00333
4244.39412,2.00356
4243.36442,2.00036
4242.33473,1.99598
4241.30504,1.99536
4240.27534,1.99587
4239.24565,1.99478
4238.21596,1.99512
4237.18627,1.99984
4236.15657,2.00338
4235.12688,2.00091
4234.09719,1.99562
4233.06749,1.99133
4232.03780,1.99146
4231.00811,1.99594
4229.97842,1.99933
4228.94872,1.99893
4227.91903,1.99801
4226.88934,1.99958
4225.85964,2.00180
4224.82995,1.99990
4223.80026,1.99549
4222.77057,1.99420
4221.74087,1.99556
4220.71118,1.99848
4219.68149,2.00328
4218.65179,2.00648
4217.62210,2.00454
4216.59241,1.99973
4215.56271,1.99623
4214.53302,1.99344
4213.50333,1.99312
4212.47364,1.99879
4211.44394,2.00416
4210.41425,2.00292
4209.38456,2.00215
4208.35486,2.00587
4207.32517,2.00633
4206.29548,2.00060
4205.26579,1.99411
4204.23609,1.99287
4203.20640,1.99648
4202.17671,2.00092
4201.14701,2.00414
4200.11732,2.00496
4199.08763,2.00400
4198.05794,2.00089
4197.02824,1.99989
4195.99855,2.00354
4194.96886,2.00397
4193.93916,2.00131
4192.90947,2.00236
4191.87978,2.00439
4190.85009,2.00526
4189.82039,2.00620
4188.79070,2.00728
4187.76101,2.00854
4186.73131,2.00693
4185.70162,2.00400
4184.67193,2.00414
4183.64224,2.00474
4182.61254,2.00269
4181.58285,1.99866
4180.55316,1.99705
4179.52346,2.00062
4178.49377,2.00456
4177.46408,2.00593
4176.43438,2.00490
4175.40469,2.00026
4174.37500,1.99639
4173.34531,1.99766
4172.31561,2.00105
4171.28592,2.00420
4170.25623,2.00706
4169.22653,2.00986
4168.19684,2.00925
4167.16715,2.00239
4166.13746,1.99670
4165.10776,1.99585
4164.07807,1.99775
4163.04838,2.00312
4162.01868,2.00875
4160.98899,2.01087
4159.95930,2.00839
4158.92961,2.00475
4157.89991,2.00530
4156.87022,2.00574
4155.84053,2.00250
4154.81083,2.00118
4153.78114,2.00255
4152.75145,2.00221
4151.72176,2.00184
4150.69206,2.00251
4149.66237,2.00159
4148.63268,2.00192
4147.60298,2.00468
4146.57329,2.00570
4145.54360,2.00487
4144.51390,2.00304
4143.48421,2.00180
4142.45452,2.00619
4141.42483,2.01109
4140.39513,2.00672
4139.36544,1.99935
4138.33575,2.00075
4137.30605,2.00724
4136.27636,2.00908
4135.24667,2.00858
4134.21698,2.00924
4133.18728,2.00839
4132.15759,2.00413
4131.12790,1.99806
4130.09820,1.99594
4129.06851,1.99882
4128.03882,2.00203
4127.00913,2.00348
4125.97943,2.00582
4124.94974,2.00937
4123.92005,2.01122
4122.89035,2.01256
4121.86066,2.01272
4120.83097,2.01017
4119.80128,2.00969
4118.77158,2.01219
4117.74189,2.01197
4116.71220,2.01001
4115.68250,2.01086
4114.65281,2.01227
4113.62312,2.01158
4112.59343,2.00958
4111.56373,2.00795
4110.53404,2.00872
4109.50435,2.01165
4108.47465,2.01296
4107.44496,2.01157
4106.41527,2.01048
4105.38557,2.00914
4104.35588,2.00727
4103.32619,2.00947
4102.29650,2.01666
4101.26680,2.02240
4100.23711,2.02418
4099.20742,2.02512
4098.17772,2.02513
4097.14803,2.02326
4096.11834,2.02145
4095.08865,2.01877
4094.05895,2.01231
4093.02926,2.00712
4091.99957,2.00879
4090.96987,2.01198
4089.94018,2.01145
4088.91049,2.01285
4087.88080,2.01966
4086.85110,2.02360
4085.82141,2.02063
4084.79172,2.01682
4083.76202,2.01573
4082.73233,2.01542
4081.70264,2.01575
4080.67295,2.01820
4079.64325,2.01835
4078.61356,2.01581
4077.58387,2.01790
4076.55417,2.02456
4075.52448,2.03079
4074.49479,2.03229
4073.46510,2.02834
4072.43540,2.02393
4071.40571,2.02110
4070.37602,2.02007
4069.34632,2.02206
4068.31663,2.02408
4067.28694,2.02514
4066.25724,2.02930
4065.22755,2.03390
4064.19786,2.03492
4063.16817,2.03316
4062.13847,2.03090
4061.10878,2.03150
4060.07909,2.03519
4059.04939,2.03869
4058.01970,2.03727
4056.99001,2.03332
4055.96032,2.03452
4054.93062,2.04149
4053.90093,2.04496
4052.87124,2.04140
4051.84154,2.04068
4050.81185,2.04526
4049.78216,2.04929
4048.75247,2.04823
4047.72277,2.04288
4046.69308,2.04011
4045.66339,2.04342
4044.63369,2.05102
4043.60400,2.05678
4042.57431,2.05333
4041.54462,2.04466
4040.51492,2.04382
4039.48523,2.04995
4038.45554,2.04929
4037.42584,2.04233
4036.39615,2.03906
4035.36646,2.03732
4034.33677,2.03507
4033.30707,2.03454
4032.27738,2.03416
4031.24769,2.03518
4030.21799,2.03808
4029.18830,2.04112
4028.15861,2.04545
4027.12891,2.04905
4026.09922,2.04713
4025.06953,2.04257
4024.03984,2.04296
4023.01014,2.04823
4021.98045,2.05041
4020.95076,2.04780
4019.92106,2.04538
4018.89137,2.04468
4017.86168,2.04501
4016.83199,2.04545
4015.80229,2.04668
4014.77260,2.04923
4013.74291,2.05212
4012.71321,2.05285
4011.68352,2.05005
4010.65383,2.04740
4009.62414,2.04785
4008.59444,2.04644
4007.56475,2.04157
4006.53506,2.04002
4005.50536,2.03950
4004.47567,2.03916
4003.44598,2.04672
4002.41629,2.05703
4001.38659,2.05696
4000.35690,2.05111
3999.32721,2.04934
3998.29751,2.04881
3997.26782,2.04611
3996.23813,2.04634
3995.20844,2.05005
3994.17874,2.05043
3993.14905,2.04621
3992.11936,2.04072
3991.08966,2.03714
3990.05997,2.03505
3989.03028,2.03397
3988.00058,2.03692
3986.97089,2.04109
3985.94120,2.04213
3984.91151,2.04145
3983.88181,2.03995
3982.85212,2.03970
3981.82243,2.04325
3980.79273,2.04931
3979.76304,2.05228
3978.73335,2.04750
3977.70366,2.04280
3976.67396,2.04396
3975.64427,2.04576
3974.61458,2.04569
3973.58488,2.04459
3972.55519,2.04060
3971.52550,2.03659
3970.49581,2.03850
3969.46611,2.04321
3968.43642,2.04466
3967.40673,2.04386
3966.37703,2.04412
3965.34734,2.04606
3964.31765,2.04925
3963.28796,2.05198
3962.25826,2.05161
3961.22857,2.04779
3960.19888,2.04413
3959.16918,2.04446
3958.13949,2.04875
3957.10980,2.05096
3956.08011,2.04867
3955.05041,2.04817
3954.02072,2.04878
3952.99103,2.04815
3951.96133,2.05045
3950.93164,2.05322
3949.90195,2.04902
3948.87225,2.04333
3947.84256,2.04414
3946.81287,2.04891
3945.78318,2.05132
3944.75348,2.05090
3943.72379,2.05133
3942.69410,2.04761
3941.66440,2.04401
3940.63471,2.04744
3939.60502,2.04989
3938.57533,2.04715
3937.54563,2.04307
3936.51594,2.04331
3935.48625,2.04750
3934.45655,2.04855
3933.42686,2.04491
3932.39717,2.04267
3931.36748,2.04253
3930.33778,2.04057
3929.30809,2.03577
3928.27840,2.03255
3927.24870,2.03550
3926.21901,2.04056
3925.18932,2.03911
3924.15963,2.03255
3923.12993,2.03010
3922.10024,2.03143
3921.07055,2.03240
3920.04085,2.03286
3919.01116,2.03655
3917.98147,2.03684
3916.95178,2.02680
3915.92208,2.01948
3914.89239,2.02026
3913.86270,2.02069
3912.83300,2.01749
3911.80331,2.01431
3910.77362,2.01424
3909.74392,2.01659
3908.71423,2.01763
3907.68454,2.01927
3906.65485,2.02319
3905.62515,2.02396
3904.59546,2.01790
3903.56577,2.00962
3902.53607,2.00493
3901.50638,2.00856
3900.47669,2.01748
3899.44700,2.01530
3898.41730,2.00401
3897.38761,2.00044
3896.35792,2.00299
3895.32822,2.00610
3894.29853,2.00843
3893.26884,2.01366
3892.23915,2.01850
3891.20945,2.01131
3890.17976,2.00206
3889.15007,2.00209
3888.12037,2.00785
3887.09068,2.01917
3886.06099,2.02172
3885.03130,2.00313
3884.00160,1.99732
3882.97191,2.00787
3881.94222,2.02116
3880.91252,2.02146
3879.88283,2.00257
3878.85314,1.99450
3877.82344,1.99986
3876.79375,2.00665
3875.76406,2.01071
3874.73437,2.00851
3873.70467,2.00104
3872.67498,1.99878
3871.64529,2.00034
3870.61559,1.99581
3869.58590,1.98441
3868.55621,1.98321
3867.52652,1.99308
3866.49682,2.00557
3865.46713,2.01112
3864.43744,2.00353
3863.40774,1.99900
3862.37805,1.99969
3861.34836,1.99596
3860.31867,1.99380
3859.28897,1.99872
3858.25928,2.00536
3857.22959,2.00925
3856.19989,2.01912
3855.17020,2.04086
3854.14051,2.04730
3853.11082,2.01196
3852.08112,1.98376
3851.05143,1.98123
3850.02174,1.99120
3848.99204,1.99739
3847.96235,1.99762
3846.93266,1.99683
3845.90297,1.99899
3844.87327,2.00455
3843.84358,2.00466
3842.81389,2.00059
3841.78419,2.00263
3840.75450,2.00532
3839.72481,2.00527
3838.69511,2.00646
3837.66542,2.00036
3836.63573,1.99533
3835.60604,1.99809
3834.57634,1.99988
3833.54665,2.00234
3832.51696,2.00671
3831.48726,2.00184
3830.45757,1.99336
3829.42788,1.99515
3828.39819,2.00142
3827.36849,2.00388
3826.33880,2.00174
3825.30911,2.00015
3824.27941,2.00215
3823.24972,2.01010
3822.22003,2.02130
3821.19034,2.01320
3820.16064,1.99279
3819.13095,1.99354
3818.10126,2.00581
3817.07156,2.01799
3816.04187,2.01068
3815.01218,1.99121
3813.98249,1.98959
3812.95279,1.99637
3811.92310,2.00188
3810.89341,2.00431
3809.86371,2.00385
3808.83402,2.00572
3807.80433,2.01056
3806.77464,2.00619
3805.74494,2.00162
3804.71525,2.00976
3803.68556,2.02145
3802.65586,2.02806
3801.62617,2.01623
3800.59648,1.99549
3799.56678,1.99460
3798.53709,2.00599
3797.50740,2.01585
3796.47771,2.01204
3795.44801,2.00572
3794.41832,2.00835
3793.38863,2.01172
3792.35893,2.01294
3791.32924,2.01322
3790.29955,2.01160
3789.26986,2.00995
3788.24016,2.01053
3787.21047,2.01348
3786.18078,2.02016
3785.15108,2.02763
3784.12139,2.02623
3783.09170,2.01982
3782.06201,2.01677
3781.03231,2.01836
3780.00262,2.02094
3778.97293,2.01973
3777.94323,2.01786
3776.91354,2.02025
3775.88385,2.02679
3774.85416,2.03302
3773.82446,2.03644
3772.79477,2.03802
3771.76508,2.04128
3770.73538,2.04133
3769.70569,2.02859
3768.67600,2.01991
3767.64631,2.02171
3766.61661,2.02237
3765.58692,2.01997
3764.55723,2.02476
3763.52753,2.03534
3762.49784,2.04187
3761.46815,2.04490
3760.43845,2.04650
3759.40876,2.03654
3758.37907,2.02655
3757.34938,2.02799
3756.31968,2.03076
3755.28999,2.03560
3754.26030,2.04902
3753.23060,2.05922
3752.20091,2.04167
3751.17122,2.03028
3750.14153,2.05211
3749.11183,2.05965
3748.08214,2.04475
3747.05245,2.04556
3746.02275,2.06649
3744.99306,2.07712
3743.96337,2.04536
3742.93368,2.04080
3741.90398,2.05156
3740.87429,2.05212
3739.84460,2.05138
3738.81490,2.05951
3737.78521,2.07451
3736.75552,2.08980
3735.72583,2.08998
3734.69613,2.07833
3733.66644,2.07425
3732.63675,2.07299
3731.60705,2.07046
3730.57736,2.07543
3729.54767,2.08365
3728.51798,2.08892
3727.48828,2.09334
3726.45859,2.09519
3725.42890,2.09241
3724.39920,2.09294
3723.36951,2.10213
3722.33982,2.10828
3721.31012,2.10805
3720.28043,2.11600
3719.25074,2.12762
3718.22105,2.13193
3717.19135,2.13342
3716.16166,2.13942
3715.13197,2.14705
3714.10227,2.15435
3713.07258,2.16393
3712.04289,2.16887
3711.01320,2.16774
3709.98350,2.16237
3708.95381,2.15542
3707.92412,2.16297
3706.89442,2.17964
3705.86473,2.18969
3704.83504,2.19335
3703.80535,2.20377
3702.77565,2.21580
3701.74596,2.20940
3700.71627,2.20087
3699.68657,2.20797
3698.65688,2.21527
3697.62719,2.22138
3696.59750,2.23161
3695.56780,2.23843
3694.53811,2.24254
3693.50842,2.24694
3692.47872,2.24820
3691.44903,2.24175
3690.41934,2.23708
3689.38965,2.24757
3688.35995,2.25230
3687.33026,2.24719
3686.30057,2.25759
3685.27087,2.27561
3684.24118,2.28667
3683.21149,2.29698
3682.18179,2.31550
3681.15210,2.33108
3680.12241,2.33212
3679.09272,2.32927
3678.06302,2.33635
3677.03333,2.35030
3676.00364,2.34742
3674.97394,2.31858
3673.94425,2.32886
3672.91456,2.35974
3671.88487,2.38308
3670.85517,2.37873
3669.82548,2.35202
3668.79579,2.34961
3667.76609,2.36550
3666.73640,2.37845
3665.70671,2.39008
3664.67702,2.40422
3663.64732,2.41304
3662.61763,2.41036
3661.58794,2.41009
3660.55824,2.42015
3659.52855,2.43053
3658.49886,2.44064
3657.46917,2.45099
3656.43947,2.45101
3655.40978,2.44411
3654.38009,2.44603
3653.35039,2.45749
3652.32070,2.48126
3651.29101,2.50706
3650.26132,2.51750
3649.23162,2.51733
3648.20193,2.50554
3647.17224,2.48616
3646.14254,2.47853
3645.11285,2.48409
3644.08316,2.48829
3643.05346,2.48952
3642.02377,2.49475
3640.99408,2.49422
3639.96439,2.49085
3638.93469,2.49497
3637.90500,2.49751
3636.87531,2.49860
3635.84561,2.50793
3634.81592,2.51680
3633.78623,2.51467
3632.75654,2.51510
3631.72684,2.52537
3630.69715,2.53812
3629.66746,2.54303
3628.63776,2.51519
3627.60807,2.50258
3626.57838,2.51463
3625.54869,2.51880
3624.51899,2.51178
3623.48930,2.50743
3622.45961,2.51414
3621.42991,2.52926
3620.40022,2.54208
3619.37053,2.53957
3618.34084,2.51873
3617.31114,2.51023
3616.28145,2.52204
3615.25176,2.53006
3614.22206,2.53703
3613.19237,2.55192
3612.16268,2.55078
3611.13299,2.54459
3610.10329,2.54507
3609.07360,2.54017
3608.04391,2.52705
3607.01421,2.51938
3605.98452,2.52603
3604.95483,2.54116
3603.92513,2.55195
3602.89544,2.55514
3601.86575,2.55299
3600.83606,2.54193
3599.80636,2.53420
3598.77667,2.54836
3597.74698,2.57156
3596.71728,2.58336
3595.68759,2.58181
3594.65790,2.57325
3593.62821,2.55876
3592.59851,2.54389
3591.56882,2.54629
3590.53913,2.56644
3589.50943,2.58160
3588.47974,2.56959
3587.45005,2.54960
3586.42036,2.54063
3585.39066,2.54409
3584.36097,2.55930
3583.33128,2.56663
3582.30158,2.56164
3581.27189,2.55937
3580.24220,2.55494
3579.21251,2.54847
3578.18281,2.54781
3577.15312,2.54851
3576.12343,2.55984
3575.09373,2.57896
3574.06404,2.58144
3573.03435,2.57603
3572.00465,2.58058
3570.97496,2.57867
3569.94527,2.56712
3568.91558,2.56377
3567.88588,2.57207
3566.85619,2.56664
3565.82650,2.54357
3564.79680,2.54718
3563.76711,2.56319
3562.73742,2.55732
3561.70773,2.54317
3560.67803,2.54346
3559.64834,2.55137
3558.61865,2.55479
3557.58895,2.55898
3556.55926,2.55911
3555.52957,2.54598
3554.49988,2.53630
3553.47018,2.54432
3552.44049,2.55481
3551.41080,2.55006
3550.38110,2.54396
3549.35141,2.55121
3548.32172,2.56033
3547.29203,2.55560
3546.26233,2.55539
3545.23264,2.56400
3544.20295,2.55966
3543.17325,2.55452
3542.14356,2.56017
3541.11387,2.56848
3540.08418,2.56791
3539.05448,2.56210
3538.02479,2.56157
3536.99510,2.56789
3535.96540,2.57240
3534.93571,2.57291
3533.90602,2.57081
3532.87632,2.56406
3531.84663,2.55083
3530.81694,2.54097
3529.78725,2.55455
3528.75755,2.57874
3527.72786,2.58443
3526.69817,2.57504
3525.66847,2.56507
3524.63878,2.55846
3523.60909,2.55669
3522.57940,2.55543
3521.54970,2.55429
3520.52001,2.55716
3519.49032,2.55544
3518.46062,2.54864
3517.43093,2.54758
3516.40124,2.55253
3515.37155,2.55333
3514.34185,2.55769
3513.31216,2.57656
3512.28247,2.58556
3511.25277,2.57386
3510.22308,2.56179
3509.19339,2.55772
3508.16370,2.55688
3507.13400,2.55464
3506.10431,2.55582
3505.07462,2.57122
3504.04492,2.58997
3503.01523,2.58530
3501.98554,2.56197
3500.95585,2.54476
3499.92615,2.54477
3498.89646,2.55277
3497.86677,2.55512
3496.83707,2.55225
3495.80738,2.54825
3494.77769,2.54158
3493.74799,2.53849
3492.71830,2.55029
3491.68861,2.55838
3490.65892,2.54748
3489.62922,2.54592
3488.59953,2.55510
3487.56984,2.55399
3486.54014,2.54900
3485.51045,2.55176
3484.48076,2.56253
3483.45107,2.57512
3482.42137,2.57604
3481.39168,2.56156
3480.36199,2.55457
3479.33229,2.56622
3478.30260,2.57531
3477.27291,2.57352
3476.24322,2.57205
3475.21352,2.56715
3474.18383,2.56183
3473.15414,2.56717
3472.12444,2.57183
3471.09475,2.56458
3470.06506,2.55457
3469.03537,2.54817
3468.00567,2.54695
3466.97598,2.54560
3465.94629,2.54060
3464.91659,2.53942
3463.88690,2.53498
3462.85721,2.52523
3461.82752,2.52891
3460.79782,2.54637
3459.76813,2.56094
3458.73844,2.57062
3457.70874,2.57124
3456.67905,2.55346
3455.64936,2.53104
3454.61966,2.52340
3453.58997,2.53279
3452.56028,2.54456
3451.53059,2.55097
3450.50089,2.55488
3449.47120,2.54802
3448.44151,2.53610
3447.41181,2.53802
3446.38212,2.55062
3445.35243,2.55621
3444.32274,2.55324
3443.29304,2.55108
3442.26335,2.55346
3441.23366,2.55800
3440.20396,2.55953
3439.17427,2.55694
3438.14458,2.55322
3437.11489,2.54932
3436.08519,2.54714
3435.05550,2.54675
3434.02581,2.54914
3432.99611,2.54979
3431.96642,2.54024
3430.93673,2.53567
3429.90704,2.54307
3428.87734,2.54514
3427.84765,2.54273
3426.81796,2.54347
3425.78826,2.53496
3424.75857,2.51892
3423.72888,2.51498
3422.69919,2.52348
3421.66949,2.53015
3420.63980,2.53202
3419.61011,2.53550
3418.58041,2.53971
3417.55072,2.54354
3416.52103,2.54720
3415.49133,2.55031
3414.46164,2.55340
3413.43195,2.54751
3412.40226,2.53467
3411.37256,2.52889
3410.34287,2.52452
3409.31318,2.52316
3408.28348,2.53456
3407.25379,2.54235
3406.22410,2.53620
3405.19441,2.52820
3404.16471,2.52258
3403.13502,2.52222
3402.10533,2.53269
3401.07563,2.53987
3400.04594,2.52843
3399.01625,2.51732
3397.98656,2.52261
3396.95686,2.53407
3395.92717,2.53853
3394.89748,2.53438
3393.86778,2.52812
3392.83809,2.52606
3391.80840,2.52674
3390.77871,2.52451
3389.74901,2.52338
3388.71932,2.53497
3387.68963,2.55216
3386.65993,2.54928
3385.63024,2.53062
3384.60055,2.51666
3383.57086,2.51212
3382.54116,2.51515
3381.51147,2.51618
3380.48178,2.51329
3379.45208,2.50950
3378.42239,2.51221
3377.39270,2.52367
3376.36300,2.52535
3375.33331,2.52027
3374.30362,2.52423
3373.27393,2.52760
3372.24423,2.52411
3371.21454,2.52444
3370.18485,2.52960
3369.15515,2.52941
3368.12546,2.52305
3367.09577,2.51804
3366.06608,2.51608
3365.03638,2.51470
3364.00669,2.51126
3362.97700,2.50740
3361.94730,2.51103
3360.91761,2.52205
3359.88792,2.53073
3358.85823,2.53485
3357.82853,2.53688
3356.79884,2.53132
3355.76915,2.51925
3354.73945,2.51317
3353.70976,2.51463
3352.68007,2.51757
3351.65038,2.52140
3350.62068,2.52476
3349.59099,2.52387
3348.56130,2.52298
3347.53160,2.52389
3346.50191,2.52129
3345.47222,2.52361
3344.44253,2.53221
3343.41283,2.53061
3342.38314,2.51997
3341.35345,2.51624
3340.32375,2.51812
3339.29406,2.51403
3338.26437,2.50942
3337.23467,2.51580
3336.20498,2.52715
3335.17529,2.52823
3334.14560,2.52181
3333.11590,2.51852
3332.08621,2.51828
3331.05652,2.51595
3330.02682,2.51246
3328.99713,2.50892
3327.96744,2.50517
3326.93775,2.50759
3325.90805,2.51622
3324.87836,2.52398
3323.84867,2.52271
3322.81897,2.51229
3321.78928,2.50328
3320.75959,2.50173
3319.72990,2.50864
3318.70020,2.51490
3317.67051,2.50796
3316.64082,2.49743
3315.61112,2.49854
3314.58143,2.50892
3313.55174,2.51807
3312.52205,2.51787
3311.49235,2.51346
3310.46266,2.51402
3309.43297,2.51606
3308.40327,2.51663
3307.37358,2.51449
3306.34389,2.50984
3305.31420,2.50794
3304.28450,2.51124
3303.25481,2.51891
3302.22512,2.52850
3301.19542,2.53300
3300.16573,2.52866
3299.13604,2.52213
3298.10634,2.51986
3297.07665,2.51946
3296.04696,2.51416
3295.01727,2.50717
3293.98757,2.50673
3292.95788,2.51130
3291.92819,2.51683
3290.89849,2.51922
3289.86880,2.51531
3288.83911,2.50895
3287.80942,2.50349
3286.77972,2.50142
3285.75003,2.50314
3284.72034,2.50120
3283.69064,2.49626
3282.66095,2.49363
3281.63126,2.49310
3280.60157,2.49920
3279.57187,2.51045
3278.54218,2.51360
3277.51249,2.50903
3276.48279,2.50549
3275.45310,2.50034
3274.42341,2.49638
3273.39372,2.49610
3272.36402,2.49530
3271.33433,2.49819
3270.30464,2.50113
3269.27494,2.50405
3268.24525,2.51107
3267.21556,2.51036
3266.18586,2.50220
3265.15617,2.49667
3264.12648,2.49641
3263.09679,2.49905
3262.06709,2.50031
3261.03740,2.50235
3260.00771,2.50782
3258.97801,2.50811
3257.94832,2.49982
3256.91863,2.49968
3255.88894,2.50819
3254.85924,2.50727
3253.82955,2.49765
3252.79986,2.49367
3251.77016,2.49568
3250.74047,2.49560
3249.71078,2.49577
3248.68109,2.49436
3247.65139,2.49058
3246.62170,2.49099
3245.59201,2.49147
3244.56231,2.49197
3243.53262,2.49333
3242.50293,2.48972
3241.47324,2.48744
3240.44354,2.48838
3239.41385,2.48488
3238.38416,2.48306
3237.35446,2.48956
3236.32477,2.49911
3235.29508,2.50144
3234.26539,2.49307
3233.23569,2.48696
3232.20600,2.49051
3231.17631,2.49408
3230.14661,2.49233
3229.11692,2.49231
3228.08723,2.49674
3227.05753,2.50129
3226.02784,2.50301
3224.99815,2.50646
3223.96846,2.51078
3222.93876,2.50819
3221.90907,2.49896
3220.87938,2.49217
3219.84968,2.49682
3218.81999,2.50482
3217.79030,2.50490
3216.76061,2.50260
3215.73091,2.50150
3214.70122,2.49803
3213.67153,2.49274
3212.64183,2.49275
3211.61214,2.49715
3210.58245,2.49547
3209.55276,2.48885
3208.52306,2.48743
3207.49337,2.48959
3206.46368,2.49158
3205.43398,2.49654
3204.40429,2.49974
3203.37460,2.49469
3202.34491,2.48888
3201.31521,2.49005
3200.28552,2.49404
3199.25583,2.49336
3198.22613,2.49407
3197.19644,2.50510
3196.16675,2.51525
3195.13706,2.51249
3194.10736,2.50423
3193.07767,2.50115
3192.04798,2.50307
3191.01828,2.49932
3189.98859,2.48985
3188.95890,2.48951
3187.92920,2.49660
3186.89951,2.49645
3185.86982,2.49530
3184.84013,2.49944
3183.81043,2.49691
3182.78074,2.48966
3181.75105,2.48818
3180.72135,2.49012
3179.69166,2.48950
3178.66197,2.48750
3177.63228,2.48891
3176.60258,2.49398
3175.57289,2.49879
3174.54320,2.49887
3173.51350,2.49862
3172.48381,2.50080
3171.45412,2.49904
3170.42443,2.49558
3169.39473,2.49491
3168.36504,2.49307
3167.33535,2.48789
3166.30565,2.48295
3165.27596,2.48029
3164.24627,2.47865
3163.21658,2.48150
3162.18688,2.49038
3161.15719,2.49578
3160.12750,2.49350
3159.09780,2.49471
3158.06811,2.50217
3157.03842,2.50104
3156.00873,2.48873
3154.97903,2.48165
3153.94934,2.48173
3152.91965,2.47693
3151.88995,2.47137
3150.86026,2.47201
3149.83057,2.47317
3148.80087,2.47280
3147.77118,2.47542
3146.74149,2.47923
3145.71180,2.48320
3144.68210,2.49119
3143.65241,2.49441
3142.62272,2.49201
3141.59302,2.49299
3140.56333,2.49199
3139.53364,2.48946
3138.50395,2.49275
3137.47425,2.49948
3136.44456,2.50076
3135.41487,2.49194
3134.38517,2.48267
3133.35548,2.48403
3132.32579,2.49142
3131.29610,2.49758
3130.26640,2.50186
3129.23671,2.50222
3128.20702,2.50114
3127.17732,2.50397
3126.14763,2.50390
3125.11794,2.49736
3124.08825,2.49110
3123.05855,2.48229
3122.02886,2.47502
3120.99917,2.47860
3119.96947,2.48729
3118.93978,2.48950
3117.91009,2.48360
3116.88040,2.48035
3115.85070,2.48063
3114.82101,2.47938
3113.79132,2.47988
3112.76162,2.48120
3111.73193,2.48062
3110.70224,2.48299
3109.67254,2.48925
3108.64285,2.49110
3107.61316,2.48520
3106.58347,2.48306
3105.55377,2.48666
3104.52408,2.48575
3103.49439,2.48457
3102.46469,2.48547
3101.43500,2.48329
3100.40531,2.48103
3099.37562,2.47946
3098.34592,2.47960
3097.31623,2.48275
3096.28654,2.48364
3095.25684,2.48083
3094.22715,2.48056
3093.19746,2.48249
3092.16777,2.48166
3091.13807,2.48017
3090.10838,2.48075
3089.07869,2.48252
3088.04899,2.48604
3087.01930,2.49096
3085.98961,2.49307
3084.95992,2.49070
3083.93022,2.48822
3082.90053,2.48821
3081.87084,2.48787
3080.84114,2.48322
3079.81145,2.47784
3078.78176,2.47550
3077.75207,2.47023
3076.72237,2.46613
3075.69268,2.47059
3074.66299,2.47803
3073.63329,2.47892
3072.60360,2.47512
3071.57391,2.47567
3070.54421,2.47735
3069.51452,2.47551
3068.48483,2.47633
3067.45514,2.48007
3066.42544,2.48137
3065.39575,2.48229
3064.36606,2.48377
3063.33636,2.48344
3062.30667,2.48418
3061.27698,2.48704
3060.24729,2.49011
3059.21759,2.49263
3058.18790,2.49067
3057.15821,2.48261
3056.12851,2.47912
3055.09882,2.48614
3054.06913,2.49385
3053.03944,2.49223
3052.00974,2.48321
3050.98005,2.47350
3049.95036,2.47047
3048.92066,2.47866
3047.89097,2.48713
3046.86128,2.48600
3045.83159,2.48389
3044.80189,2.48523
3043.77220,2.48755
3042.74251,2.48787
3041.71281,2.48573
3040.68312,2.48693
3039.65343,2.49105
3038.62374,2.49073
3037.59404,2.48503
3036.56435,2.48209
3035.53466,2.48637
3034.50496,2.48915
3033.47527,2.48476
3032.44558,2.47739
3031.41588,2.47389
3030.38619,2.47993
3029.35650,2.48880
3028.32681,2.48993
3027.29711,2.48644
3026.26742,2.48316
3025.23773,2.48309
3024.20803,2.48850
3023.17834,2.49268
3022.14865,2.49154
3021.11896,2.48853
3020.08926,2.48308
3019.05957,2.47712
3018.02988,2.47472
3017.00018,2.47679
3015.97049,2.48093
3014.94080,2.48157
3013.91111,2.47985
3012.88141,2.47893
3011.85172,2.47825
3010.82203,2.47831
3009.79233,2.47733
3008.76264,2.47418
3007.73295,2.47615
3006.70326,2.48326
3005.67356,2.48652
3004.64387,2.48697
3003.61418,2.48827
3002.58448,2.48585
3001.55479,2.47965
3000.52510,2.47912
2999.49541,2.48483
2998.46571,2.48971
2997.43602,2.49314
2996.40633,2.49405
2995.37663,2.48971
2994.34694,2.48490
2993.31725,2.48642
2992.28755,2.49402
2991.25786,2.50038
2990.22817,2.49843
2989.19848,2.49221
2988.16878,2.49235
2987.13909,2.49704
2986.10940,2.49453
2985.07970,2.48836
2984.05001,2.48827
2983.02032,2.49073
2981.99063,2.49459
2980.96093,2.50065
2979.93124,2.50258
2978.90155,2.49955
2977.87185,2.49420
2976.84216,2.48918
2975.81247,2.48853
2974.78278,2.48890
2973.75308,2.48719
2972.72339,2.48808
2971.69370,2.49227
2970.66400,2.49577
2969.63431,2.49768
2968.60462,2.49741
2967.57493,2.49583
2966.54523,2.49614
2965.51554,2.49585
2964.48585,2.49469
2963.45615,2.49361
2962.42646,2.49109
2961.39677,2.49179
2960.36707,2.49701
2959.33738,2.49911
2958.30769,2.49414
2957.27800,2.48756
2956.24830,2.48514
2955.21861,2.48716
2954.18892,2.48891
2953.15922,2.48563
2952.12953,2.48273
2951.09984,2.48483
2950.07015,2.48412
2949.04045,2.48072
2948.01076,2.48363
2946.98107,2.48664
2945.95137,2.48364
2944.92168,2.48100
2943.89199,2.48038
2942.86230,2.47912
2941.83260,2.47981
2940.80291,2.48493
2939.77322,2.48861
2938.74352,2.48642
2937.71383,2.48385
2936.68414,2.48675
2935.65445,2.48920
2934.62475,2.48723
2933.59506,2.48618
2932.56537,2.48539
2931.53567,2.48316
2930.50598,2.47879
2929.47629,2.47354
2928.44660,2.47221
2927.41690,2.47313
2926.38721,2.47195
2925.35752,2.46880
2924.32782,2.47095
2923.29813,2.47512
2922.26844,2.47406
2921.23874,2.47356
2920.20905,2.47526
2919.17936,2.47699
2918.14967,2.47741
2917.11997,2.47186
2916.09028,2.46477
2915.06059,2.46725
2914.03089,2.47326
2913.00120,2.47027
2911.97151,2.46325
2910.94182,2.46136
2909.91212,2.46690
2908.88243,2.47305
2907.85274,2.47254
2906.82304,2.46922
2905.79335,2.46709
2904.76366,2.46443
2903.73397,2.46389
2902.70427,2.46853
2901.67458,2.47216
2900.64489,2.47208
2899.61519,2.47090
2898.58550,2.46994
2897.55581,2.46994
2896.52612,2.46926
2895.49642,2.46959
2894.46673,2.47086
2893.43704,2.47011
2892.40734,2.46919
2891.37765,2.47063
2890.34796,2.47357
2889.31827,2.47528
2888.28857,2.47456
2887.25888,2.47287
2886.22919,2.47254
2885.19949,2.47466
2884.16980,2.47459
2883.14011,2.47094
2882.11041,2.46932
2881.08072,2.47025
2880.05103,2.46954
2879.02134,2.46729
2877.99164,2.47133
2876.96195,2.48082
2875.93226,2.48362
2874.90256,2.47928
2873.87287,2.47494
2872.84318,2.47116
2871.81349,2.46924
2870.78379,2.47159
2869.75410,2.47600
2868.72441,2.47840
2867.69471,2.47531
2866.66502,2.46829
2865.63533,2.46738
2864.60564,2.47253
2863.57594,2.47351
2862.54625,2.47242
2861.51656,2.47262
2860.48686,2.46992
2859.45717,2.46529
2858.42748,2.46114
2857.39779,2.46054
2856.36809,2.46508
2855.33840,2.46993
2854.30871,2.47017
2853.27901,2.46724
2852.24932,2.46891
2851.21963,2.47397
2850.18994,2.47238
2849.16024,2.46596
2848.13055,2.46296
2847.10086,2.46380
2846.07116,2.46250
2845.04147,2.45771
2844.01178,2.45572
2842.98208,2.45992
2841.95239,2.46705
2840.92270,2.47109
2839.89301,2.46992
2838.86331,2.46554
2837.83362,2.46135
2836.80393,2.46359
2835.77423,2.46881
2834.74454,2.46573
2833.71485,2.46081
2832.68516,2.46331
2831.65546,2.46425
2830.62577,2.46062
2829.59608,2.45923
2828.56638,2.46008
2827.53669,2.46091
2826.50700,2.45870
2825.47731,2.45403
2824.44761,2.45357
2823.41792,2.45949
2822.38823,2.46758
2821.35853,2.47020
2820.32884,2.46532
2819.29915,2.45820
2818.26946,2.45411
2817.23976,2.45815
2816.21007,2.46790
2815.18038,2.47295
2814.15068,2.47016
2813.12099,2.46460
2812.09130,2.45867
2811.06161,2.45427
2810.03191,2.45320
2809.00222,2.45451
2807.97253,2.45554
2806.94283,2.45477
2805.91314,2.45383
2804.88345,2.45273
2803.85375,2.45123
2802.82406,2.45101
2801.79437,2.45428
2800.76468,2.46040
2799.73498,2.46258
2798.70529,2.46131
2797.67560,2.46494
2796.64590,2.46848
2795.61621,2.46334
2794.58652,2.45699
2793.55683,2.45643
2792.52713,2.45749
2791.49744,2.45725
2790.46775,2.45990
2789.43805,2.46451
2788.40836,2.46519
2787.37867,2.46293
2786.34898,2.46068
2785.31928,2.45662
2784.28959,2.45127
2783.25990,2.44979
2782.23020,2.45195
2781.20051,2.45546
2780.17082,2.45871
2779.14113,2.45655
2778.11143,2.45010
2777.08174,2.44958
2776.05205,2.45540
2775.02235,2.45725
2773.99266,2.45638
2772.96297,2.45644
2771.93328,2.45344
2770.90358,2.45007
2769.87389,2.45514
2768.84420,2.46519
2767.81450,2.46676
2766.78481,2.45981
2765.75512,2.45194
2764.72542,2.44847
2763.69573,2.45032
2762.66604,2.45321
2761.63635,2.45451
2760.60665,2.45450
2759.57696,2.45391
2758.54727,2.45221
2757.51757,2.44913
2756.48788,2.44792
2755.45819,2.44910
2754.42850,2.44744
2753.39880,2.44508
2752.36911,2.44846
2751.33942,2.45323
2750.30972,2.45206
2749.28003,2.44926
2748.25034,2.45354
2747.22065,2.46091
2746.19095,2.46307
2745.16126,2.45856
2744.13157,2.45119
2743.10187,2.44696
2742.07218,2.44599
2741.04249,2.44770
2740.01280,2.45415
2738.98310,2.45767
2737.95341,2.45503
2736.92372,2.45379
2735.89402,2.45531
2734.86433,2.45396
2733.83464,2.44839
2732.80495,2.44693
2731.77525,2.45264
2730.74556,2.45890
2729.71587,2.45980
2728.68617,2.45378
2727.65648,2.44901
2726.62679,2.44998
2725.59709,2.44876
2724.56740,2.44540
2723.53771,2.44817
2722.50802,2.45430
2721.47832,2.45536
2720.44863,2.45258
2719.41894,2.45207
2718.38924,2.45222
2717.35955,2.45191
2716.32986,2.45248
2715.30017,2.45012
2714.27047,2.44609
2713.24078,2.44465
2712.21109,2.44586
2711.18139,2.44856
2710.15170,2.45099
2709.12201,2.45000
2708.09232,2.44672
2707.06262,2.44744
2706.03293,2.44935
2705.00324,2.44598
2703.97354,2.44431
2702.94385,2.45094
2701.91416,2.45731
2700.88447,2.45600
2699.85477,2.45151
2698.82508,2.44679
2697.79539,2.44246
2696.76569,2.44180
2695.73600,2.44400
2694.70631,2.44491
2693.67662,2.44297
2692.64692,2.44098
2691.61723,2.44328
2690.58754,2.44725
2689.55784,2.44584
2688.52815,2.44395
2687.49846,2.44977
2686.46876,2.45474
2685.43907,2.45081
2684.40938,2.44686
2683.37969,2.44706
2682.34999,2.44590
2681.32030,2.44269
2680.29061,2.43948
2679.26091,2.43941
2678.23122,2.44391
2677.20153,2.44618
2676.17184,2.44422
2675.14214,2.44306
2674.11245,2.44460
2673.08276,2.44965
2672.05306,2.45464
2671.02337,2.45403
2669.99368,2.44905
2668.96399,2.44661
2667.93429,2.45155
2666.90460,2.45519
2665.87491,2.44947
2664.84521,2.44519
2663.81552,2.44729
2662.78583,2.44938
2661.75614,2.45011
2660.72644,2.44889
2659.69675,2.44591
2658.66706,2.44532
2657.63736,2.44716
2656.60767,2.44658
2655.57798,2.44345
2654.54828,2.44140
2653.51859,2.44158
2652.48890,2.44260
2651.45921,2.44219
2650.42951,2.44212
2649.39982,2.44496
2648.37013,2.44716
2647.34043,2.44832
2646.31074,2.45277
2645.28105,2.45616
2644.25136,2.45218
2643.22166,2.44453
2642.19197,2.43971
2641.16228,2.43958
2640.13258,2.44356
2639.10289,2.44872
2638.07320,2.45135
2637.04351,2.44984
2636.01381,2.44462
2634.98412,2.43996
2633.95443,2.44030
2632.92473,2.44660
2631.89504,2.45179
2630.86535,2.45062
2629.83566,2.44943
2628.80596,2.44964
2627.77627,2.45137
2626.74658,2.45424
2625.71688,2.45248
2624.68719,2.44727
2623.65750,2.44302
2622.62781,2.44214
2621.59811,2.44307
2620.56842,2.44271
2619.53873,2.44424
2618.50903,2.44777
2617.47934,2.44684
2616.44965,2.44243
2615.41995,2.44078
2614.39026,2.44149
2613.36057,2.44201
2612.33088,2.44234
2611.30118,2.44160
2610.27149,2.44086
2609.24180,2.44195
2608.21210,2.44428
2607.18241,2.44978
2606.15272,2.45814
2605.12303,2.46129
2604.09333,2.45737
2603.06364,2.45371
2602.03395,2.45221
2601.00425,2.45073
2599.97456,2.45058
2598.94487,2.45018
2597.91518,2.44737
2596.88548,2.44475
2595.85579,2.44537
2594.82610,2.44917
2593.79640,2.45349
2592.76671,2.45538
2591.73702,2.45330
2590.70733,2.44909
2589.67763,2.44455
2588.64794,2.44600
2587.61825,2.45372
2586.58855,2.45569
2585.55886,2.45267
2584.52917,2.45014
2583.49948,2.44547
2582.46978,2.44135
2581.44009,2.44210
2580.41040,2.44331
2579.38070,2.44338
2578.35101,2.44550
2577.32132,2.44509
2576.29162,2.44170
2575.26193,2.44394
2574.23224,2.45061
2573.20255,2.45296
2572.17285,2.45151
2571.14316,2.45042
2570.11347,2.45063
2569.08377,2.45219
2568.05408,2.45322
2567.02439,2.45228
2565.99470,2.45141
2564.96500,2.44978
2563.93531,2.44526
2562.90562,2.44261
2561.87592,2.44306
2560.84623,2.44543
2559.81654,2.44940
2558.78685,2.45114
2557.75715,2.44963
2556.72746,2.44612
2555.69777,2.44525
2554.66807,2.44957
2553.63838,2.45418
2552.60869,2.45655
2551.57900,2.45623
2550.54930,2.45117
2549.51961,2.44478
2548.48992,2.44289
2547.46022,2.44520
2546.43053,2.44908
2545.40084,2.45249
2544.37115,2.45375
2543.34145,2.45339
2542.31176,2.45143
2541.28207,2.44917
2540.25237,2.44928
2539.22268,2.44882
2538.19299,2.44763
2537.16329,2.45087
2536.13360,2.45639
2535.10391,2.45845
2534.07422,2.45591
2533.04452,2.45354
2532.01483,2.45350
2530.98514,2.45352
2529.95544,2.45656
2528.92575,2.46157
2527.89606,2.46167
2526.86637,2.45691
2525.83667,2.45108
2524.80698,2.44830
2523.77729,2.45005
2522.74759,2.45156
2521.71790,2.45068
2520.68821,2.45218
2519.65852,2.45737
2518.62882,2.46156
2517.59913,2.46313
2516.56944,2.46396
2515.53974,2.46408
2514.51005,2.46346
2513.48036,2.46217
2512.45067,2.45916
2511.42097,2.45618
2510.39128,2.45394
2509.36159,2.45293
2508.33189,2.45789
2507.30220,2.46428
2506.27251,2.46243
2505.24282,2.45594
2504.21312,2.45189
2503.18343,2.45123
2502.15374,2.45263
2501.12404,2.45316
2500.09435,2.45210
2499.06466,2.45091
2498.03496,2.45111
2497.00527,2.45319
2495.97558,2.45264
2494.94589,2.44882
2493.91619,2.44566
2492.88650,2.44484
2491.85681,2.44648
2490.82711,2.44625
2489.79742,2.44273
2488.76773,2.44018
2487.73804,2.44013
2486.70834,2.44101
2485.67865,2.44200
2484.64896,2.44206
2483.61926,2.44156
2482.58957,2.44135
2481.55988,2.43779
2480.53019,2.43346
2479.50049,2.43321
2478.47080,2.43148
2477.44111,2.42544
2476.41141,2.42274
2475.38172,2.42404
2474.35203,2.42189
2473.32234,2.41951
2472.29264,2.42153
2471.26295,2.42371
2470.23326,2.42305
2469.20356,2.42073
2468.17387,2.42175
2467.14418,2.42386
2466.11449,2.42044
2465.08479,2.41664
2464.05510,2.41821
2463.02541,2.42355
2461.99571,2.42770
2460.96602,2.42653
2459.93633,2.42163
2458.90663,2.41852
2457.87694,2.41834
2456.84725,2.41620
2455.81756,2.41503
2454.78786,2.41733
2453.75817,2.41648
2452.72848,2.41317
2451.69878,2.41193
2450.66909,2.41181
2449.63940,2.41044
2448.60971,2.40893
2447.58001,2.40983
2446.55032,2.41166
2445.52063,2.41150
2444.49093,2.41058
2443.46124,2.40796
2442.43155,2.40258
2441.40186,2.40056
2440.37216,2.40185
2439.34247,2.40222
2438.31278,2.40353
2437.28308,2.40656
2436.25339,2.40903
2435.22370,2.40820
2434.19401,2.40688
2433.16431,2.40863
2432.13462,2.40817
2431.10493,2.40620
2430.07523,2.40853
2429.04554,2.40937
2428.01585,2.40550
2426.98616,2.40296
2425.95646,2.40175
2424.92677,2.39970
2423.89708,2.40112
2422.86738,2.40677
2421.83769,2.40757
2420.80800,2.40325
2419.77830,2.40079
2418.74861,2.39991
2417.71892,2.40020
2416.68923,2.39875
2415.65953,2.39571
2414.62984,2.39640
2413.60015,2.39823
2412.57045,2.39897
2411.54076,2.40006
2410.51107,2.40087
2409.48138,2.40185
2408.45168,2.40107
2407.42199,2.39551
2406.39230,2.39017
2405.36260,2.39107
2404.33291,2.39263
2403.30322,2.39011
2402.27353,2.39016
2401.24383,2.39462
2400.21414,2.39455
2399.18445,2.38775
2398.15475,2.38598
2397.12506,2.39319
2396.09537,2.39815
2395.06568,2.39650
2394.03598,2.39354
2393.00629,2.39081
2391.97660,2.38865
2390.94690,2.38927
2389.91721,2.39086
2388.88752,2.39146
2387.85782,2.39260
2386.82813,2.39325
2385.79844,2.39394
2384.76875,2.39573
2383.73905,2.39520
2382.70936,2.39287
2381.67967,2.39271
2380.64997,2.39478
2379.62028,2.39586
2378.59059,2.39193
2377.56090,2.38863
2376.53120,2.39283
2375.50151,2.39760
2374.47182,2.39797
2373.44212,2.39615
2372.41243,2.39555
2371.38274,2.40183
2370.35305,2.41402
2369.32335,2.42154
2368.29366,2.41681
2367.26397,2.40761
2366.23427,2.40624
2365.20458,2.41117
2364.17489,2.41856
2363.14520,2.43051
2362.11550,2.43742
2361.08581,2.43491
2360.05612,2.43204
2359.02642,2.43301
2357.99673,2.44038
2356.96704,2.44334
2355.93735,2.43678
2354.90765,2.43355
2353.87796,2.43204
2352.84827,2.43035
2351.81857,2.43185
2350.78888,2.43314
2349.75919,2.44048
2348.72949,2.45419
2347.69980,2.46248
2346.67011,2.46278
2345.64042,2.46133
2344.61072,2.46229
2343.58103,2.46882
2342.55134,2.47650
2341.52164,2.47717
2340.49195,2.47249
2339.46226,2.47181
2338.43257,2.47241
2337.40287,2.46649
2336.37318,2.46043
2335.34349,2.45962
2334.31379,2.46106
2333.28410,2.45814
2332.25441,2.44699
2331.22472,2.43473
2330.19502,2.43092
2329.16533,2.43564
2328.13564,2.43879
2327.10594,2.43648
2326.07625,2.43144
2325.04656,2.42268
2324.01687,2.41252
2322.98717,2.40885
2321.95748,2.41285
2320.92779,2.41276
2319.89809,2.40259
2318.86840,2.39514
2317.83871,2.39342
2316.80902,2.39260
2315.77932,2.39600
2314.74963,2.40087
2313.71994,2.39791
2312.69024,2.39136
2311.66055,2.39044
2310.63086,2.38987
2309.60116,2.38752
2308.57147,2.38862
2307.54178,2.38810
2306.51209,2.38137
2305.48239,2.37536
2304.45270,2.37605
2303.42301,2.37941
2302.39331,2.37936
2301.36362,2.37714
2300.33393,2.37618
2299.30424,2.37609
2298.27454,2.37675
2297.24485,2.37718
2296.21516,2.37567
2295.18546,2.37365
2294.15577,2.37054
2293.12608,2.36666
2292.09639,2.36690
2291.06669,2.36900
2290.03700,2.36715
2289.00731,2.36429
2287.97761,2.36393
2286.94792,2.36347
2285.91823,2.36203
2284.88854,2.36128
2283.85884,2.36072
2282.82915,2.36005
2281.79946,2.35928
2280.76976,2.35942
2279.74007,2.36160
2278.71038,2.36276
2277.68069,2.36202
2276.65099,2.36276
2275.62130,2.36459
2274.59161,2.36581
2273.56191,2.36620
2272.53222,2.36449
2271.50253,2.36119
2270.47283,2.35918
2269.44314,2.35995
2268.41345,2.36137
2267.38376,2.36103
2266.35406,2.36063
2265.32437,2.36041
2264.29468,2.35849
2263.26498,2.35737
2262.23529,2.35840
2261.20560,2.35929
2260.17591,2.35939
2259.14621,2.35825
2258.11652,2.35736
2257.08683,2.35936
2256.05713,2.36247
2255.02744,2.36292
2253.99775,2.36237
2252.96806,2.36380
2251.93836,2.36443
2250.90867,2.36226
2249.87898,2.36108
2248.84928,2.36253
2247.81959,2.36247
2246.78990,2.36082
2245.76021,2.36052
2244.73051,2.36116
2243.70082,2.36109
2242.67113,2.36103
2241.64143,2.36062
2240.61174,2.35957
2239.58205,2.36094
2238.55236,2.36248
2237.52266,2.36364
2236.49297,2.36614
2235.46328,2.36657
2234.43358,2.36612
2233.40389,2.36851
2232.37420,2.37060
2231.34450,2.36830
2230.31481,2.36384
2229.28512,2.36065
2228.25543,2.36123
2227.22573,2.36518
2226.19604,2.36802
2225.16635,2.36603
2224.13665,2.36079
2223.10696,2.35985
2222.07727,2.36252
2221.04758,2.36219
2220.01788,2.36096
2218.98819,2.36033
2217.95850,2.36120
2216.92880,2.36574
2215.89911,2.37042
2214.86942,2.37048
2213.83973,2.36695
2212.81003,2.36540
2211.78034,2.36718
2210.75065,2.36746
2209.72095,2.36337
2208.69126,2.36016
2207.66157,2.36479
2206.63188,2.37100
2205.60218,2.36944
2204.57249,2.36536
2203.54280,2.36328
2202.51310,2.36275
2201.48341,2.36511
2200.45372,2.36769
2199.42403,2.36580
2198.39433,2.36028
2197.36464,2.35757
2196.33495,2.35907
2195.30525,2.36163
2194.27556,2.36492
2193.24587,2.36799
2192.21617,2.36810
2191.18648,2.36566
2190.15679,2.36321
2189.12710,2.36280
2188.09740,2.36432
2187.06771,2.36519
2186.03802,2.36517
2185.00832,2.36556
2183.97863,2.36732
2182.94894,2.36812
2181.91925,2.36644
2180.88955,2.36450
2179.85986,2.36177
2178.83017,2.35925
2177.80047,2.36027
2176.77078,2.36377
2175.74109,2.36638
2174.71140,2.36826
2173.68170,2.36847
2172.65201,2.36427
2171.62232,2.35935
2170.59262,2.35955
2169.56293,2.36293
2168.53324,2.36404
2167.50355,2.36370
2166.47385,2.36525
2165.44416,2.36768
2164.41447,2.36923
2163.38477,2.37067
2162.35508,2.37052
2161.32539,2.36908
2160.29570,2.37056
2159.26600,2.37402
2158.23631,2.37342
2157.20662,2.36920
2156.17692,2.36843
2155.14723,2.37281
2154.11754,2.37863
2153.08784,2.37999
2152.05815,2.37656
2151.02846,2.37466
2149.99877,2.37388
2148.96907,2.37156
2147.93938,2.37184
2146.90969,2.37751
2145.87999,2.38342
2144.85030,2.38365
2143.82061,2.38251
2142.79092,2.38505
2141.76122,2.38456
2140.73153,2.37867
2139.70184,2.37408
2138.67214,2.37490
2137.64245,2.37916
2136.61276,2.38062
2135.58307,2.37974
2134.55337,2.38109
2133.52368,2.38267
2132.49399,2.38192
2131.46429,2.38024
2130.43460,2.37914
2129.40491,2.37877
2128.37522,2.37814
2127.34552,2.37591
2126.31583,2.37316
2125.28614,2.37182
2124.25644,2.37142
2123.22675,2.37012
2122.19706,2.36826
2121.16737,2.36850
2120.13767,2.37129
2119.10798,2.37315
2118.07829,2.37135
2117.04859,2.36845
2116.01890,2.36765
2114.98921,2.36777
2113.95951,2.37029
2112.92982,2.37559
2111.90013,2.37799
2110.87044,2.37578
2109.84074,2.37292
2108.81105,2.37200
2107.78136,2.37055
2106.75166,2.36789
2105.72197,2.36699
2104.69228,2.36785
2103.66259,2.37047
2102.63289,2.37259
2101.60320,2.37102
2100.57351,2.37053
2099.54381,2.37210
2098.51412,2.37137
2097.48443,2.36982
2096.45474,2.37001
2095.42504,2.37145
2094.39535,2.37174
2093.36566,2.37041
2092.33596,2.36978
2091.30627,2.37209
2090.27658,2.37544
2089.24689,2.37579
2088.21719,2.37273
2087.18750,2.36745
2086.15781,2.36641
2085.12811,2.37100
2084.09842,2.37221
2083.06873,2.36900
2082.03903,2.36597
2081.00934,2.36583
2079.97965,2.36955
2078.94996,2.37369
2077.92026,2.37490
2076.89057,2.37268
2075.86088,2.36947
2074.83118,2.36744
2073.80149,2.36692
2072.77180,2.36819
2071.74211,2.36882
2070.71241,2.36959
2069.68272,2.37084
2068.65303,2.37017
2067.62333,2.37086
2066.59364,2.37190
2065.56395,2.36885
2064.53426,2.36515
2063.50456,2.36679
2062.47487,2.37231
2061.44518,2.37394
2060.41548,2.37025
2059.38579,2.36844
2058.35610,2.37101
2057.32641,2.37428
2056.29671,2.37471
2055.26702,2.37206
2054.23733,2.37054
2053.20763,2.37033
2052.17794,2.36928
2051.14825,2.37092
2050.11856,2.37561
2049.08886,2.37763
2048.05917,2.37560
2047.02948,2.37450
2045.99978,2.37575
2044.97009,2.37558
2043.94040,2.37320
2042.91070,2.37236
2041.88101,2.37438
2040.85132,2.37592
2039.82163,2.37443
2038.79193,2.37162
2037.76224,2.37255
2036.73255,2.37788
2035.70285,2.38120
2034.67316,2.37934
2033.64347,2.37647
2032.61378,2.37628
2031.58408,2.37669
2030.55439,2.37642
2029.52470,2.37865
2028.49500,2.38317
2027.46531,2.38582
2026.43562,2.38430
2025.40593,2.37966
2024.37623,2.37555
2023.34654,2.37460
2022.31685,2.37674
2021.28715,2.37925
2020.25746,2.37943
2019.22777,2.37922
2018.19808,2.38106
2017.16838,2.38259
2016.13869,2.38190
2015.10900,2.38072
2014.07930,2.38027
2013.04961,2.37942
2012.01992,2.37773
2010.99023,2.37677
2009.96053,2.37680
2008.93084,2.37852
2007.90115,2.38002
2006.87145,2.37859
2005.84176,2.37840
2004.81207,2.38073
2003.78237,2.38223
2002.75268,2.38162
2001.72299,2.37860
2000.69330,2.37652
1999.66360,2.37766
1998.63391,2.37932
1997.60422,2.38145
1996.57452,2.38519
1995.54483,2.38830
1994.51514,2.38874
1993.48545,2.38556
1992.45575,2.38056
1991.42606,2.37746
1990.39637,2.37778
1989.36667,2.37943
1988.33698,2.37860
1987.30729,2.37782
1986.27760,2.38098
1985.24790,2.38315
1984.21821,2.38185
1983.18852,2.38013
1982.15882,2.37929
1981.12913,2.38036
1980.09944,2.38268
1979.06975,2.38392
1978.04005,2.38605
1977.01036,2.39042
1975.98067,2.39480
1974.95097,2.39708
1973.92128,2.39479
1972.89159,2.38904
1971.86190,2.38472
1970.83220,2.38244
1969.80251,2.38284
1968.77282,2.38662
1967.74312,2.38718
1966.71343,2.38325
1965.68374,2.38300
1964.65404,2.38660
1963.62435,2.38844
1962.59466,2.38817
1961.56497,2.38897
1960.53527,2.38979
1959.50558,2.39021
1958.47589,2.39091
1957.44619,2.38894
1956.41650,2.38475
1955.38681,2.38291
1954.35712,2.38472
1953.32742,2.38877
1952.29773,2.39189
1951.26804,2.39055
1950.23834,2.38571
1949.20865,2.38323
1948.17896,2.38679
1947.14927,2.39027
1946.11957,2.38850
1945.08988,2.38856
1944.06019,2.39433
1943.03049,2.39435
1942.00080,2.38546
1940.97111,2.38602
1939.94142,2.39340
1938.91172,2.39263
1937.88203,2.38701
1936.85234,2.38631
1935.82264,2.38969
1934.79295,2.39363
1933.76326,2.39755
1932.73357,2.40011
1931.70387,2.39998
1930.67418,2.39768
1929.64449,2.39412
1928.61479,2.39158
1927.58510,2.39164
1926.55541,2.39213
1925.52571,2.39467
1924.49602,2.39984
1923.46633,2.40099
1922.43664,2.39907
1921.40694,2.40132
1920.37725,2.40562
1919.34756,2.40875
1918.31786,2.40558
1917.28817,2.39637
1916.25848,2.39503
1915.22879,2.40024
1914.19909,2.40533
1913.16940,2.40715
1912.13971,2.40357
1911.11001,2.40127
1910.08032,2.40303
1909.05063,2.40372
1908.02094,2.40165
1906.99124,2.39947
1905.96155,2.40166
1904.93186,2.40615
1903.90216,2.40769
1902.87247,2.40565
1901.84278,2.40287
1900.81309,2.40318
1899.78339,2.40862
1898.75370,2.41404
1897.72401,2.41223
1896.69431,2.40804
1895.66462,2.40776
1894.63493,2.40911
1893.60524,2.41131
1892.57554,2.41425
1891.54585,2.41832
1890.51616,2.42164
1889.48646,2.41693
1888.45677,2.41058
1887.42708,2.41099
1886.39738,2.41184
1885.36769,2.41265
1884.33800,2.41778
1883.30831,2.42287
1882.27861,2.42187
1881.24892,2.41928
1880.21923,2.42209
1879.18953,2.42422
1878.15984,2.41861
1877.13015,2.41312
1876.10046,2.41411
1875.07076,2.42131
1874.04107,2.42994
1873.01138,2.43142
1871.98168,2.42806
1870.95199,2.42716
1869.92230,2.42694
1868.89261,2.42283
1867.86291,2.41848
1866.83322,2.41954
1865.80353,2.42525
1864.77383,2.42961
1863.74414,2.42955
1862.71445,2.42933
1861.68476,2.43243
1860.65506,2.43749
1859.62537,2.44048
1858.59568,2.44032
1857.56598,2.43919
1856.53629,2.43864
1855.50660,2.43872
1854.47691,2.43806
1853.44721,2.43782
1852.41752,2.44098
1851.38783,2.44563
1850.35813,2.44804
1849.32844,2.44963
1848.29875,2.45056
1847.26905,2.44813
1846.23936,2.44833
1845.20967,2.45489
1844.17998,2.45454
1843.15028,2.44755
1842.12059,2.45022
1841.09090,2.45623
1840.06120,2.46175
1839.03151,2.46533
1838.00182,2.46408
1836.97213,2.46125
1835.94243,2.46181
1834.91274,2.46507
1833.88305,2.46722
1832.85335,2.46767
1831.82366,2.47126
1830.79397,2.47592
1829.76428,2.46695
1828.73458,2.45783
1827.70489,2.46623
1826.67520,2.47814
1825.64550,2.48011
1824.61581,2.47320
1823.58612,2.47637
1822.55643,2.48696
1821.52673,2.49150
1820.49704,2.49084
1819.46735,2.49458
1818.43765,2.50101
1817.40796,2.50324
1816.37827,2.50668
1815.34858,2.51053
1814.31888,2.51012
1813.28919,2.51037
1812.25950,2.51543
1811.22980,2.52110
1810.20011,2.52017
1809.17042,2.52177
1808.14072,2.53001
1807.11103,2.53537
1806.08134,2.53689
1805.05165,2.54039
1804.02195,2.54935
1802.99226,2.56368
1801.96257,2.57794
1800.93287,2.58542
1799.90318,2.58086
1798.87349,2.56650
1797.84380,2.56134
1796.81410,2.56852
1795.78441,2.57518
1794.75472,2.57883
1793.72502,2.58546
1792.69533,2.58849
1791.66564,2.58431
1790.63595,2.58560
1789.60625,2.59343
1788.57656,2.59801
1787.54687,2.59500
1786.51717,2.59284
1785.48748,2.59450
1784.45779,2.59709
1783.42810,2.60084
1782.39840,2.60382
1781.36871,2.60285
1780.33902,2.59872
1779.30932,2.59852
1778.27963,2.60349
1777.24994,2.61392
1776.22024,2.62313
1775.19055,2.62202
1774.16086,2.62326
1773.13117,2.62819
1772.10147,2.61913
1771.07178,2.60983
1770.04209,2.61464
1769.01239,2.62397
1767.98270,2.62671
1766.95301,2.62442
1765.92332,2.62779
1764.89362,2.63047
1763.86393,2.63039
1762.83424,2.63393
1761.80454,2.63246
1760.77485,2.62218
1759.74516,2.62134
1758.71547,2.63162
1757.68577,2.64800
1756.65608,2.65603
1755.62639,2.64506
1754.59669,2.63570
1753.56700,2.63782
1752.53731,2.64723
1751.50762,2.65380
1750.47792,2.65352
1749.44823,2.65419
1748.41854,2.65096
1747.38884,2.64906
1746.35915,2.64977
1745.32946,2.64806
1744.29977,2.64820
1743.27007,2.64752
1742.24038,2.65284
1741.21069,2.66951
1740.18099,2.67751
1739.15130,2.66677
1738.12161,2.66551
1737.09191,2.67348
1736.06222,2.68562
1735.03253,2.69959
1734.00284,2.67637
1732.97314,2.64029
1731.94345,2.64861
1730.91376,2.66629
1729.88406,2.66533
1728.85437,2.65310
1727.82468,2.64546
1726.79499,2.63864
1725.76529,2.63893
1724.73560,2.64360
1723.70591,2.64230
1722.67621,2.64213
1721.64652,2.64528
1720.61683,2.64404
1719.58714,2.64448
1718.55744,2.65404
1717.52775,2.65869
1716.49806,2.64892
1715.46836,2.63572
1714.43867,2.62094
1713.40898,2.62031
1712.37929,2.62976
1711.34959,2.63386
1710.31990,2.62917
1709.29021,2.62327
1708.26051,2.62573
1707.23082,2.62947
1706.20113,2.62397
1705.17144,2.62095
1704.14174,2.61930
1703.11205,2.61883
1702.08236,2.63108
1701.05266,2.63944
1700.02297,2.58462
1698.99328,2.56121
1697.96358,2.58144
1696.93389,2.59510
1695.90420,2.57433
1694.87451,2.56066
1693.84481,2.57699
1692.81512,2.59162
1691.78543,2.59731
1690.75573,2.59715
1689.72604,2.59034
1688.69635,2.58138
1687.66666,2.57964
1686.63696,2.59025
1685.60727,2.61377
1684.57758,2.63140
1683.54788,2.58841
1682.51819,2.56351
1681.48850,2.56148
1680.45881,2.55555
1679.42911,2.54354
1678.39942,2.53945
1677.36973,2.54250
1676.34003,2.54790
1675.31034,2.53554
1674.28065,2.51748
1673.25096,2.52338
1672.22126,2.52338
1671.19157,2.50823
1670.16188,2.50126
1669.13218,2.48796
1668.10249,2.46987
1667.07280,2.47135
1666.04311,2.47507
1665.01341,2.47477
1663.98372,2.47268
1662.95403,2.45916
1661.92433,2.44237
1660.89464,2.43969
1659.86495,2.44040
1658.83525,2.43789
1657.80556,2.43031
1656.77587,2.42257
1655.74618,2.42634
1654.71648,2.44253
1653.68679,2.44266
1652.65710,2.36184
1651.62740,2.34316
1650.59771,2.35850
1649.56802,2.37330
1648.53833,2.38193
1647.50863,2.37730
1646.47894,2.35109
1645.44925,2.32545
1644.41955,2.32640
1643.38986,2.33651
1642.36017,2.34109
1641.33048,2.34004
1640.30078,2.33688
1639.27109,2.33692
1638.24140,2.34081
1637.21170,2.34527
1636.18201,2.34527
1635.15232,2.31622
1634.12263,2.29673
1633.09293,2.30456
1632.06324,2.31563
1631.03355,2.32071
1630.00385,2.32492
1628.97416,2.33022
1627.94447,2.32370
1626.91478,2.31239
1625.88508,2.31642
1624.85539,2.32703
1623.82570,2.32381
1622.79600,2.30129
1621.76631,2.29454
1620.73662,2.30336
1619.70692,2.31208
1618.67723,2.32093
1617.64754,2.33123
1616.61785,2.31572
1615.58815,2.29115
1614.55846,2.29206
1613.52877,2.29961
1612.49907,2.30594
1611.46938,2.31117
1610.43969,2.31540
1609.41000,2.31329
1608.38030,2.30951
1607.35061,2.31207
1606.32092,2.31459
1605.29122,2.31634
1604.26153,2.31915
1603.23184,2.31941
1602.20215,2.31855
1601.17245,2.32075
1600.14276,2.32547
1599.11307,2.33059
1598.08337,2.33646
1597.05368,2.34322
1596.02399,2.34569
1594.99430,2.34311
1593.96460,2.34210
1592.93491,2.34518
1591.90522,2.34916
1590.87552,2.35007
1589.84583,2.34922
1588.81614,2.35225
1587.78645,2.35941
1586.75675,2.36524
1585.72706,2.36933
1584.69737,2.37270
1583.66767,2.37203
1582.63798,2.36772
1581.60829,2.36599
1580.57859,2.37000
1579.54890,2.37582
1578.51921,2.38377
1577.48952,2.39892
1576.45982,2.40192
1575.43013,2.37361
1574.40044,2.36747
1573.37074,2.37630
1572.34105,2.38438
1571.31136,2.39539
1570.28167,2.40483
1569.25197,2.39051
1568.22228,2.37890
1567.19259,2.38632
1566.16289,2.39480
1565.13320,2.39257
1564.10351,2.38317
1563.07382,2.38591
1562.04412,2.40094
1561.01443,2.42129
1559.98474,2.44012
1558.95504,2.42439
1557.92535,2.37917
1556.89566,2.37464
1555.86597,2.39270
1554.83627,2.40717
1553.80658,2.39631
1552.77689,2.39177
1551.74719,2.40623
1550.71750,2.41999
1549.68781,2.41628
1548.65812,2.40958
1547.62842,2.41378
1546.59873,2.42311
1545.56904,2.42770
1544.53934,2.41988
1543.50965,2.41885
1542.47996,2.42671
1541.45026,2.42681
1540.42057,2.42376
1539.39088,2.39660
1538.36119,2.37349
1537.33149,2.38246
1536.30180,2.39962
1535.27211,2.41738
1534.24241,2.42604
1533.21272,2.41212
1532.18303,2.40236
1531.15334,2.40651
1530.12364,2.41529
1529.09395,2.42711
1528.06426,2.43405
1527.03456,2.43611
1526.00487,2.43846
1524.97518,2.43297
1523.94549,2.43032
1522.91579,2.43762
1521.88610,2.44121
1520.85641,2.42491
1519.82671,2.41744
1518.79702,2.43255
1517.76733,2.44973
1516.73764,2.43812
1515.70794,2.42189
1514.67825,2.42433
1513.64856,2.43348
1512.61886,2.43952
1511.58917,2.44018
1510.55948,2.44325
1509.52979,2.44879
1508.50009,2.46363
1507.47040,2.48425
1506.44071,2.44688
1505.41101,2.41230
1504.38132,2.42344
1503.35163,2.43989
1502.32193,2.45099
1501.29224,2.45600
1500.26255,2.45973
1499.23286,2.46046
1498.20316,2.45498
1497.17347,2.45578
1496.14378,2.45159
1495.11408,2.44220
1494.08439,2.44859
1493.05470,2.46244
1492.02501,2.47314
1490.99531,2.47025
1489.96562,2.44840
1488.93593,2.44330
1487.90623,2.45675
1486.87654,2.45977
1485.84685,2.45288
1484.81716,2.45412
1483.78746,2.46437
1482.75777,2.47704
1481.72808,2.48178
1480.69838,2.47476
1479.66869,2.47155
1478.63900,2.47768
1477.60931,2.48520
1476.57961,2.48129
1475.54992,2.46788
1474.52023,2.46997
1473.49053,2.47853
1472.46084,2.46321
1471.43115,2.44601
1470.40145,2.45126
1469.37176,2.45878
1468.34207,2.45819
1467.31238,2.45728
1466.28268,2.46247
1465.25299,2.46117
1464.22330,2.44931
1463.19360,2.44989
1462.16391,2.45401
1461.13422,2.45340
1460.10453,2.45805
1459.07483,2.47298
1458.04514,2.48481
1457.01545,2.45801
1455.98575,2.42241
1454.95606,2.41793
1453.92637,2.42573
1452.89668,2.43370
1451.86698,2.43384
1450.83729,2.42913
1449.80760,2.42951
1448.77790,2.43122
1447.74821,2.42424
1446.71852,2.41551
1445.68883,2.41265
1444.65913,2.41206
1443.62944,2.41342
1442.59975,2.41677
1441.57005,2.41905
1440.54036,2.41787
1439.51067,2.41604
1438.48098,2.42158
1437.45128,2.42639
1436.42159,2.40261
1435.39190,2.38571
1434.36220,2.39318
1433.33251,2.39966
1432.30282,2.39897
1431.27312,2.39766
1430.24343,2.39389
1429.21374,2.38701
1428.18405,2.38396
1427.15435,2.38364
1426.12466,2.38488
1425.09497,2.38738
1424.06527,2.38639
1423.03558,2.38248
1422.00589,2.38604
1420.97620,2.40017
1419.94650,2.40958
1418.91681,2.38963
1417.88712,2.37636
1416.85742,2.37772
1415.82773,2.37547
1414.79804,2.37585
1413.76835,2.37986
1412.73865,2.38059
1411.70896,2.37758
1410.67927,2.37622
1409.64957,2.37642
1408.61988,2.37608
1407.59019,2.37883
1406.56050,2.38668
1405.53080,2.39209
1404.50111,2.38823
1403.47142,2.38644
1402.44172,2.38972
1401.41203,2.39293
1400.38234,2.39559
1399.35265,2.39166
1398.32295,2.38162
1397.29326,2.38106
1396.26357,2.39063
1395.23387,2.39830
1394.20418,2.38883
1393.17449,2.37996
1392.14479,2.38369
1391.11510,2.38965
1390.08541,2.39547
1389.05572,2.40428
1388.02602,2.40924
1386.99633,2.40029
1385.96664,2.39108
1384.93694,2.39145
1383.90725,2.39487
1382.87756,2.39590
1381.84787,2.39427
1380.81817,2.39288
1379.78848,2.39384
1378.75879,2.39516
1377.72909,2.39235
1376.69940,2.39123
1375.66971,2.39532
1374.64002,2.39547
1373.61032,2.38743
1372.58063,2.38248
1371.55094,2.38541
1370.52124,2.39242
1369.49155,2.39761
1368.46186,2.39629
1367.43217,2.39392
1366.40247,2.39395
1365.37278,2.39418
1364.34309,2.39592
1363.31339,2.39448
1362.28370,2.38741
1361.25401,2.38533
1360.22432,2.38935
1359.19462,2.39517
1358.16493,2.39831
1357.13524,2.39742
1356.10554,2.39597
1355.07585,2.39605
1354.04616,2.40041
1353.01646,2.40621
1351.98677,2.40681
1350.95708,2.40498
1349.92739,2.40728
1348.89769,2.41191
1347.86800,2.41378
1346.83831,2.41334
1345.80861,2.41402
1344.77892,2.41573
1343.74923,2.41616
1342.71954,2.41874
1341.68984,2.42355
1340.66015,2.42146
1339.63046,2.41348
1338.60076,2.41202
1337.57107,2.41243
1336.54138,2.40818
1335.51169,2.40540
1334.48199,2.40460
1333.45230,2.40166
1332.42261,2.39733
1331.39291,2.39223
1330.36322,2.38741
1329.33353,2.38219
1328.30384,2.37213
1327.27414,2.35944
1326.24445,2.34867
1325.21476,2.33776
1324.18506,2.32555
1323.15537,2.31489
1322.12568,2.30582
1321.09599,2.29657
1320.06629,2.28819
1319.03660,2.28281
1318.00691,2.27947
1316.97721,2.27727
1315.94752,2.27974
1314.91783,2.28667
1313.88813,2.29230
1312.85844,2.29528
1311.82875,2.29707
1310.79906,2.29996
1309.76936,2.30610
1308.73967,2.31134
1307.70998,2.31321
1306.68028,2.31586
1305.65059,2.32136
1304.62090,2.32749
1303.59121,2.33161
1302.56151,2.33295
1301.53182,2.33376
1300.50213,2.33626
1299.47243,2.33862
1298.44274,2.34128
1297.41305,2.34739
1296.38336,2.35449
1295.35366,2.35900
1294.32397,2.36162
1293.29428,2.36365
1292.26458,2.36427
1291.23489,2.36205
1290.20520,2.36017
1289.17551,2.36127
1288.14581,2.36427
1287.11612,2.36903
1286.08643,2.37322
1285.05673,2.37462
1284.02704,2.37454
1282.99735,2.37465
1281.96766,2.37467
1280.93796,2.37375
1279.90827,2.37533
1278.87858,2.38101
1277.84888,2.38406
1276.81919,2.38307
1275.78950,2.38214
1274.75980,2.38174
1273.73011,2.38255
1272.70042,2.38250
1271.67073,2.38163
1270.64103,2.38311
1269.61134,2.38573
1268.58165,2.38725
1267.55195,2.38866
1266.52226,2.39174
1265.49257,2.39455
1264.46288,2.39376
1263.43318,2.39106
1262.40349,2.39107
1261.37380,2.39335
1260.34410,2.39365
1259.31441,2.39264
1258.28472,2.39686
1257.25503,2.40391
1256.22533,2.40397
1255.19564,2.39879
1254.16595,2.39778
1253.13625,2.40131
1252.10656,2.40257
1251.07687,2.40046
1250.04718,2.39874
1249.01748,2.39953
1247.98779,2.40074
1246.95810,2.39997
1245.92840,2.39862
1244.89871,2.39907
1243.86902,2.40238
1242.83933,2.40704
1241.80963,2.41098
1240.77994,2.41350
1239.75025,2.41286
1238.72055,2.40854
1237.69086,2.40457
1236.66117,2.40260
1235.63147,2.40282
1234.60178,2.40556
1233.57209,2.40831
1232.54240,2.41060
1231.51270,2.41254
1230.48301,2.41244
1229.45332,2.41064
1228.42362,2.40920
1227.39393,2.40803
1226.36424,2.40610
1225.33455,2.40599
1224.30485,2.40990
1223.27516,2.41403
1222.24547,2.41406
1221.21577,2.41077
1220.18608,2.40979
1219.15639,2.41270
1218.12670,2.41536
1217.09700,2.41649
1216.06731,2.41555
1215.03762,2.41319
1214.00792,2.41343
1212.97823,2.41501
1211.94854,2.41511
1210.91885,2.41553
1209.88915,2.41841
1208.85946,2.42297
1207.82977,2.42460
1206.80007,2.42126
1205.77038,2.41716
1204.74069,2.41576
1203.71100,2.41446
1202.68130,2.41052
1201.65161,2.40646
1200.62192,2.40625
1199.59222,2.41114
1198.56253,2.41767
1197.53284,2.41885
1196.50314,2.41307
1195.47345,2.41046
1194.44376,2.41406
1193.41407,2.41444
1192.38437,2.41034
1191.35468,2.40496
1190.32499,2.40137
1189.29529,2.40243
1188.26560,2.40392
1187.23591,2.40370
1186.20622,2.40323
1185.17652,2.40231
1184.14683,2.40297
1183.11714,2.40543
1182.08744,2.40581
1181.05775,2.40500
1180.02806,2.40466
1178.99837,2.40104
1177.96867,2.39583
1176.93898,2.39492
1175.90929,2.39548
1174.87959,2.39184
1173.84990,2.38833
1172.82021,2.39051
1171.79052,2.39387
1170.76082,2.39464
1169.73113,2.39351
1168.70144,2.38871
1167.67174,2.38290
1166.64205,2.38179
1165.61236,2.38116
1164.58266,2.37652
1163.55297,2.37268
1162.52328,2.37305
1161.49359,2.37427
1160.46389,2.37276
1159.43420,2.37004
1158.40451,2.36820
1157.37481,2.36723
1156.34512,2.36515
1155.31543,2.36366
1154.28574,2.36596
1153.25604,2.36728
1152.22635,2.36430
1151.19666,2.35864
1150.16696,2.35268
1149.13727,2.35003
1148.10758,2.35136
1147.07789,2.35363
1146.04819,2.35474
1145.01850,2.35476
1143.98881,2.35372
1142.95911,2.35132
1141.92942,2.34813
1140.89973,2.34425
1139.87004,2.34222
1138.84034,2.34541
1137.81065,2.35085
1136.78096,2.35229
1135.75126,2.34733
1134.72157,2.33979
1133.69188,2.33470
1132.66219,2.33144
1131.63249,2.32908
1130.60280,2.33101
1129.57311,2.33611
1128.54341,2.33824
1127.51372,2.33561
1126.48403,2.33126
1125.45433,2.32662
1124.42464,2.32247
1123.39495,2.32070
1122.36526,2.32043
1121.33556,2.31955
1120.30587,2.31591
1119.27618,2.30903
1118.24648,2.30250
1117.21679,2.30058
1116.18710,2.30080
1115.15741,2.29814
1114.12771,2.29327
1113.09802,2.28809
1112.06833,2.28291
1111.03863,2.27923
1110.00894,2.27990
1108.97925,2.28326
1107.94956,2.28414
1106.91986,2.28195
1105.89017,2.27986
1104.86048,2.27816
1103.83078,2.27499
1102.80109,2.27094
1101.77140,2.26810
1100.74171,2.26751
1099.71201,2.26630
1098.68232,2.26202
1097.65263,2.25898
1096.62293,2.25968
1095.59324,2.26085
1094.56355,2.25961
1093.53386,2.25469
1092.50416,2.24865
1091.47447,2.24641
1090.44478,2.24607
1089.41508,2.24331
1088.38539,2.23988
1087.35570,2.23788
1086.32600,2.23690
1085.29631,2.23627
1084.26662,2.23614
1083.23693,2.23566
1082.20723,2.23186
1081.17754,2.22646
1080.14785,2.22509
1079.11815,2.22689
1078.08846,2.22487
1077.05877,2.21885
1076.02908,2.21541
1074.99938,2.21504
1073.96969,2.21368
1072.94000,2.21114
1071.91030,2.20765
1070.88061,2.20335
1069.85092,2.19989
1068.82123,2.19591
1067.79153,2.19210
1066.76184,2.19069
1065.73215,2.18847
1064.70245,2.18443
1063.67276,2.18259
1062.64307,2.18191
1061.61338,2.17754
1060.58368,2.17008
1059.55399,2.16497
1058.52430,2.16392
1057.49460,2.16157
1056.46491,2.15545
1055.43522,2.14993
1054.40553,2.14933
1053.37583,2.15086
1052.34614,2.14788
1051.31645,2.14068
1050.28675,2.13424
1049.25706,2.13040
1048.22737,2.12779
1047.19767,2.12547
1046.16798,2.12287
1045.13829,2.11897
1044.10860,2.11468
1043.07890,2.11142
1042.04921,2.10714
1041.01952,2.10031
1039.98982,2.09362
1038.96013,2.08920
1037.93044,2.08564
1036.90075,2.08200
1035.87105,2.07910
1034.84136,2.07571
1033.81167,2.07180
1032.78197,2.06915
1031.75228,2.06739
1030.72259,2.06545
1029.69290,2.06235
1028.66320,2.05855
1027.63351,2.05728
1026.60382,2.05991
1025.57412,2.06084
1024.54443,2.05681
1023.51474,2.05195
1022.48505,2.04791
1021.45535,2.04431
1020.42566,2.04314
1019.39597,2.04446
1018.36627,2.04455
1017.33658,2.04286
1016.30689,2.04259
1015.27720,2.04321
1014.24750,2.04318
1013.21781,2.04166
1012.18812,2.03902
1011.15842,2.03811
1010.12873,2.03827
1009.09904,2.03814
1008.06934,2.03785
1007.03965,2.03761
1006.00996,2.03927
1004.98027,2.04135
1003.95057,2.04015
1002.92088,2.03819
1001.89119,2.03847
1000.86149,2.03852
999.83180,2.03787
998.80211,2.03888
997.77242,2.04125
996.74272,2.04289
995.71303,2.04352
994.68334,2.04392
993.65364,2.04381
992.62395,2.04363
991.59426,2.04482
990.56457,2.04688
989.53487,2.04782
988.50518,2.04755
987.47549,2.04784
986.44579,2.04948
985.41610,2.05073
984.38641,2.05120
983.35672,2.05244
982.32702,2.05412
981.29733,2.05601
980.26764,2.05791
979.23794,2.05859
978.20825,2.05865
977.17856,2.05907
976.14887,2.06077
975.11917,2.06299
974.08948,2.06390
973.05979,2.06657
972.03009,2.07129
971.00040,2.07378
969.97071,2.07388
968.94101,2.07393
967.91132,2.07419
966.88163,2.07454
965.85194,2.07760
964.82224,2.08213
963.79255,2.08496
962.76286,2.08620
961.73316,2.08541
960.70347,2.08560
959.67378,2.08959
958.64409,2.09307
957.61439,2.09392
956.58470,2.09595
955.55501,2.10101
954.52531,2.10694
953.49562,2.11203
952.46593,2.11593
951.43624,2.11673
950.40654,2.11521
949.37685,2.11392
948.34716,2.11535
947.31746,2.12043
946.28777,2.12606
945.25808,2.12969
944.22839,2.13123
943.19869,2.13198
942.16900,2.13308
941.13931,2.13655
940.10961,2.13962
939.07992,2.13794
938.05023,2.13599
937.02054,2.13848
935.99084,2.14265
934.96115,2.14394
933.93146,2.14299
932.90176,2.14307
931.87207,2.14470
930.84238,2.14671
929.81268,2.14940
928.78299,2.15165
927.75330,2.15118
926.72361,2.15073
925.69391,2.15190
924.66422,2.15260
923.63453,2.15301
922.60483,2.15449
921.57514,2.15668
920.54545,2.15750
919.51576,2.15616
918.48606,2.15408
917.45637,2.15261
916.42668,2.15377
915.39698,2.15738
914.36729,2.15924
913.33760,2.15867
912.30791,2.15900
911.27821,2.16019
910.24852,2.16000
909.21883,2.15939
908.18913,2.16188
907.15944,2.16694
906.12975,2.16994
905.10006,2.17102
904.07036,2.17386
903.04067,2.17819
902.01098,2.17979
900.98128,2.17772
899.95159,2.17556
898.92190,2.17582
897.89221,2.17881
896.86251,2.18137
895.83282,2.18215
894.80313,2.18092
893.77343,2.17790
892.74374,2.17882
891.71405,2.18637
890.68435,2.19431
889.65466,2.19668
888.62497,2.19677
887.59528,2.19758
886.56558,2.19761
885.53589,2.19835
884.50620,2.19908
883.47650,2.19866
882.44681,2.19761
881.41712,2.19591
880.38743,2.19778
879.35773,2.20159
878.32804,2.19978
877.29835,2.19490
876.26865,2.18906
875.23896,2.18195
874.20927,2.18024
873.17958,2.18236
872.14988,2.18206
871.12019,2.18316
870.09050,2.18834
869.06080,2.19445
868.03111,2.19735
867.00142,2.19880
865.97173,2.20221
864.94203,2.20295
863.91234,2.20163
862.88265,2.20265
861.85295,2.20621
860.82326,2.21169
859.79357,2.21603
858.76387,2.21796
857.73418,2.21865
856.70449,2.21743
855.67480,2.21212
854.64510,2.20759
853.61541,2.21026
852.58572,2.21465
851.55602,2.21830
850.52633,2.22442
849.49664,2.22526
848.46695,2.21958
847.43725,2.21790
846.40756,2.22117
845.37787,2.22654
844.34817,2.23185
843.31848,2.23307
842.28879,2.23081
841.25910,2.22874
840.22940,2.23002
839.19971,2.23409
838.17002,2.23385
837.14032,2.22777
836.11063,2.22606
835.08094,2.23033
834.05125,2.23293
833.02155,2.23475
831.99186,2.24104
830.96217,2.24786
829.93247,2.24715
828.90278,2.24308
827.87309,2.24435
826.84340,2.24969
825.81370,2.25319
824.78401,2.25418
823.75432,2.25204
822.72462,2.24881
821.69493,2.25138
820.66524,2.25677
819.63554,2.25544
818.60585,2.24717
817.57616,2.24337
816.54647,2.24620
815.51677,2.24886
814.48708,2.25641
813.45739,2.27055
812.42769,2.27473
811.39800,2.26493
810.36831,2.25773
809.33862,2.25725
808.30892,2.25523
807.27923,2.25127
806.24954,2.24683
805.21984,2.24139
804.19015,2.24304
803.16046,2.25243
802.13077,2.25702
801.10107,2.25204
800.07138,2.24369
799.04169,2.24069
798.01199,2.24352
796.98230,2.24688
795.95261,2.25111
794.92292,2.25202
793.89322,2.24451
792.86353,2.23648
791.83384,2.23575
790.80414,2.24020
789.77445,2.24072
788.74476,2.23670
787.71507,2.23856
786.68537,2.24697
785.65568,2.25242
784.62599,2.24858
783.59629,2.23780
782.56660,2.23096
781.53691,2.23053
780.50721,2.22770
779.47752,2.22292
778.44783,2.22222
777.41814,2.22571
776.38844,2.22840
775.35875,2.22975
774.32906,2.23351
773.29936,2.23356
772.26967,2.22658
771.23998,2.21967
770.21029,2.21789
769.18059,2.21963
768.15090,2.21276
767.12121,2.20243
766.09151,2.20436
765.06182,2.21101
764.03213,2.21664
763.00244,2.22592
761.97274,2.23539
760.94305,2.24080
759.91336,2.24001
758.88366,2.23564
757.85397,2.23425
756.82428,2.23520
755.79459,2.23520
754.76489,2.23654
753.73520,2.24088
752.70551,2.24134
751.67581,2.23654
750.64612,2.23845
749.61643,2.24878
748.58674,2.25383
747.55704,2.25415
746.52735,2.25967
745.49766,2.25966
744.46796,2.24970
743.43827,2.24707
742.40858,2.25009
741.37888,2.24339
740.34919,2.23216
739.31950,2.23089
738.28981,2.23872
737.26011,2.24750
736.23042,2.25146
735.20073,2.24818
734.17103,2.23881
733.14134,2.23262
732.11165,2.23709
731.08196,2.24383
730.05226,2.24349
729.02257,2.23966
727.99288,2.23713
726.96318,2.23143
725.93349,2.23045
724.90380,2.23912
723.87411,2.24307
722.84441,2.24498
721.81472,2.24989
720.78503,2.24649
719.75533,2.24214
718.72564,2.24537
717.69595,2.24140
716.66626,2.23122
715.63656,2.22457
714.60687,2.21739
713.57718,2.21600
712.54748,2.22526
711.51779,2.22775
710.48810,2.22316
709.45841,2.22177
708.42871,2.21781
707.39902,2.21436
706.36933,2.21871
705.33963,2.22547
704.30994,2.22437
703.28025,2.22342
702.25055,2.23619
701.22086,2.24004
700.19117,2.22441
699.16148,2.21483
698.13178,2.20972
697.10209,2.19813
696.07240,2.19383
695.04270,2.20079
694.01301,2.21015
692.98332,2.21247
691.95363,2.20558
690.92393,2.20180
689.89424,2.20430
688.86455,2.19624
687.83485,2.18140
686.80516,2.18282
685.77547,2.19686
684.74578,2.20625
683.71608,2.20750
682.68639,2.20639
681.65670,2.20918
680.62700,2.22020
679.59731,2.22798
678.56762,2.22077
677.53793,2.21209
676.50823,2.20978
675.47854,2.21034
674.44885,2.21956
673.41915,2.23412
672.38946,2.23319
671.35977,2.22037
670.33008,2.21271
669.30038,2.21038
668.27069,2.19959
667.24100,2.18519
666.21130,2.18627
665.18161,2.18902
664.15192,2.19285
663.12222,2.20180
662.09253,2.21814
661.06284,2.22313
660.03315,2.20447
659.00345,2.19445
657.97376,2.20718
656.94407,2.22106
655.91437,2.22494
654.88468,2.22054
653.85499,2.20816
652.82530,2.19280
651.79560,2.18199
650.76591,2.18007
649.73622,2.19305
648.70652,2.21280
647.67683,2.21447
646.64714,2.19900
645.61745,2.19449
644.58775,2.20365
643.55806,2.20584
642.52837,2.19718
641.49867,2.18093
640.46898,2.15605
639.43929,2.14597
638.40960,2.16601
637.37990,2.19254
636.35021,2.19073
635.32052,2.16402
634.29082,2.15494
633.26113,2.17396
632.23144,2.18509
631.20175,2.17159
630.17205,2.16062
629.14236,2.16778
628.11267,2.17973
627.08297,2.19662
626.05328,2.19717
625.02359,2.16815
623.99389,2.15539
622.96420,2.18089
621.93451,2.20545
620.90482,2.19045
619.87512,2.15894
618.84543,2.15340
617.81574,2.17953
616.78604,2.18182
615.75635,2.13656
614.72666,2.09925
613.69697,2.09764
612.66727,2.11951
611.63758,2.13875
610.60789,2.13888
609.57819,2.12642
608.54850,2.12336
607.51881,2.14035
606.48912,2.14335
605.45942,2.12352
604.42973,2.12483
603.40004,2.14113
602.37034,2.14972
601.34065,2.16095
600.31096,2.16915
599.28127,2.15398
