5997.96112,1.69618
5996.93142,1.69618
5995.90173,1.69618
5994.87204,1.69618
5993.84235,1.69618
5992.81265,1.69618
5991.78296,1.69618
5990.75327,1.69618
5989.72357,1.69618
5988.69388,1.69618
5987.66419,1.69618
5986.63450,1.69618
5985.60480,1.69618
5984.57511,1.69630
5983.54542,1.69640
5982.51572,1.69647
5981.48603,1.69650
5980.45634,1.69649
5979.42665,1.69642
5978.39695,1.69630
5977.36726,1.69614
5976.33757,1.69594
5975.30787,1.69571
5974.27818,1.69548
5973.24849,1.69526
5972.21879,1.69506
5971.18910,1.69493
5970.15941,1.69489
5969.12972,1.69494
5968.10002,1.69508
5967.07033,1.69530
5966.04064,1.69559
5965.01094,1.69592
5963.98125,1.69626
5962.95156,1.69656
5961.92187,1.69680
5960.89217,1.69693
5959.86248,1.69691
5958.83279,1.69671
5957.80309,1.69628
5956.77340,1.69562
5955.74371,1.69470
5954.71402,1.69355
5953.68432,1.69218
5952.65463,1.69063
5951.62494,1.68893
5950.59524,1.68715
5949.56555,1.68535
5948.53586,1.68357
5947.50617,1.68190
5946.47647,1.68038
5945.44678,1.67905
5944.41709,1.67796
5943.38739,1.67711
5942.35770,1.67654
5941.32801,1.67626
5940.29831,1.67625
5939.26862,1.67653
5938.23893,1.67707
5937.20924,1.67785
5936.17954,1.67885
5935.14985,1.68002
5934.12016,1.68135
5933.09046,1.68279
5932.06077,1.68433
5931.03108,1.68592
5930.00139,1.68754
5928.97169,1.68917
5927.94200,1.69079
5926.91231,1.69239
5925.88261,1.69395
5924.85292,1.69548
5923.82323,1.69696
5922.79354,1.69837
5921.76384,1.69968
5920.73415,1.70089
5919.70446,1.70197
5918.67476,1.70292
5917.64507,1.70371
5916.61538,1.70436
5915.58569,1.70487
5914.55599,1.70523
5913.52630,1.70547
5912.49661,1.70560
5911.46691,1.70563
5910.43722,1.70561
5909.40753,1.70554
5908.37784,1.70545
5907.34814,1.70538
5906.31845,1.70535
5905.28876,1.70539
5904.25906,1.70552
5903.22937,1.70578
5902.19968,1.70618
5901.16998,1.70673
5900.14029,1.70744
5899.11060,1.70828
5898.08091,1.70923
5897.05121,1.71026
5896.02152,1.71134
5894.99183,1.71245
5893.96213,1.71354
5892.93244,1.71459
5891.90275,1.71557
5890.87306,1.71645
5889.84336,1.71723
5888.81367,1.71788
5887.78398,1.71840
5886.75428,1.71879
5885.72459,1.71903
5884.69490,1.71914
5883.66521,1.71914
5882.63551,1.71903
5881.60582,1.71886
5880.57613,1.71864
5879.54643,1.71844
5878.51674,1.71827
5877.48705,1.71818
5876.45736,1.71821
5875.42766,1.71838
5874.39797,1.71871
5873.36828,1.71923
5872.33858,1.71995
5871.30889,1.72088
5870.27920,1.72202
5869.24951,1.72337
5868.21981,1.72492
5867.19012,1.72664
5866.16043,1.72851
5865.13073,1.73049
5864.10104,1.73253
5863.07135,1.73460
5862.04165,1.73664
5861.01196,1.73860
5859.98227,1.74042
5858.95258,1.74208
5857.92288,1.74352
5856.89319,1.74471
5855.86350,1.74565
5854.83380,1.74632
5853.80411,1.74673
5852.77442,1.74686
5851.74473,1.74675
5850.71503,1.74640
5849.68534,1.74584
5848.65565,1.74510
5847.62595,1.74420
5846.59626,1.74316
5845.56657,1.74203
5844.53688,1.74082
5843.50718,1.73957
5842.47749,1.73832
5841.44780,1.73710
5840.41810,1.73595
5839.38841,1.73490
5838.35872,1.73397
5837.32903,1.73320
5836.29933,1.73259
5835.26964,1.73219
5834.23995,1.73199
5833.21025,1.73203
5832.18056,1.73233
5831.15087,1.73289
5830.12118,1.73374
5829.09148,1.73486
5828.06179,1.73625
5827.03210,1.73789
5826.00240,1.73975
5824.97271,1.74180
5823.94302,1.74399
5822.91332,1.74629
5821.88363,1.74863
5820.85394,1.75100
5819.82425,1.75333
5818.79455,1.75561
5817.76486,1.75780
5816.73517,1.75988
5815.70547,1.76183
5814.67578,1.76361
5813.64609,1.76521
5812.61640,1.76662
5811.58670,1.76783
5810.55701,1.76884
5809.52732,1.76966
5808.49762,1.77030
5807.46793,1.77077
5806.43824,1.77109
5805.40855,1.77127
5804.37885,1.77133
5803.34916,1.77127
5802.31947,1.77112
5801.28977,1.77090
5800.26008,1.77062
5799.23039,1.77033
5798.20070,1.77004
5797.17100,1.76978
5796.14131,1.76959
5795.11162,1.76949
5794.08192,1.76953
5793.05223,1.76971
5792.02254,1.77006
5790.99285,1.77059
5789.96315,1.77130
5788.93346,1.77218
5787.90377,1.77322
5786.87407,1.77441
5785.84438,1.77571
5784.81469,1.77711
5783.78499,1.77855
5782.75530,1.78001
5781.72561,1.78142
5780.69592,1.78274
5779.66622,1.78394
5778.63653,1.78498
5777.60684,1.78581
5776.57714,1.78642
5775.54745,1.78676
5774.51776,1.78684
5773.48807,1.78665
5772.45837,1.78617
5771.42868,1.78543
5770.39899,1.78443
5769.36929,1.78321
5768.33960,1.78180
5767.30991,1.78022
5766.28022,1.77853
5765.25052,1.77676
5764.22083,1.77495
5763.19114,1.77315
5762.16144,1.77140
5761.13175,1.76974
5760.10206,1.76822
5759.07237,1.76686
5758.04267,1.76567
5757.01298,1.76469
5755.98329,1.76392
5754.95359,1.76336
5753.92390,1.76300
5752.89421,1.76282
5751.86452,1.76281
5750.83482,1.76292
5749.80513,1.76312
5748.77544,1.76339
5747.74574,1.76368
5746.71605,1.76398
5745.68636,1.76424
5744.65666,1.76445
5743.62697,1.76461
5742.59728,1.76469
5741.56759,1.76469
5740.53789,1.76462
5739.50820,1.76449
5738.47851,1.76431
5737.44881,1.76409
5736.41912,1.76386
5735.38943,1.76361
5734.35974,1.76336
5733.33004,1.76312
5732.30035,1.76289
5731.27066,1.76268
5730.24096,1.76248
5729.21127,1.76230
5728.18158,1.76212
5727.15189,1.76193
5726.12219,1.76174
5725.09250,1.76154
5724.06281,1.76134
5723.03311,1.76113
5722.00342,1.76092
5720.97373,1.76072
5719.94404,1.76056
5718.91434,1.76044
5717.88465,1.76037
5716.85496,1.76037
5715.82526,1.76046
5714.79557,1.76065
5713.76588,1.76094
5712.73619,1.76134
5711.70649,1.76185
5710.67680,1.76246
5709.64711,1.76317
5708.61741,1.76397
5707.58772,1.76485
5706.55803,1.76579
5705.52833,1.76681
5704.49864,1.76788
5703.46895,1.76900
5702.43926,1.77016
5701.40956,1.77138
5700.37987,1.77265
5699.35018,1.77397
5698.32048,1.77534
5697.29079,1.77677
5696.26110,1.77824
5695.23141,1.77976
5694.20171,1.78131
5693.17202,1.78289
5692.14233,1.78447
5691.11263,1.78605
5690.08294,1.78760
5689.05325,1.78910
5688.02356,1.79052
5686.99386,1.79185
5685.96417,1.79304
5684.93448,1.79410
5683.90478,1.79501
5682.87509,1.79576
5681.84540,1.79635
5680.81571,1.79677
5679.78601,1.79704
5678.75632,1.79716
5677.72663,1.79715
5676.69693,1.79701
5675.66724,1.79677
5674.63755,1.79641
5673.60786,1.79597
5672.57816,1.79544
5671.54847,1.79483
5670.51878,1.79415
5669.48908,1.79340
5668.45939,1.79258
5667.42970,1.79170
5666.40000,1.79077
5665.37031,1.78978
5664.34062,1.78874
5663.31093,1.78768
5662.28123,1.78662
5661.25154,1.78558
5660.22185,1.78460
5659.19215,1.78370
5658.16246,1.78293
5657.13277,1.78232
5656.10308,1.78188
5655.07338,1.78166
5654.04369,1.78165
5653.01400,1.78188
5651.98430,1.78234
5650.95461,1.78301
5649.92492,1.78388
5648.89523,1.78491
5647.86553,1.78605
5646.83584,1.78727
5645.80615,1.78851
5644.77645,1.78970
5643.74676,1.79079
5642.71707,1.79174
5641.68738,1.79249
5640.65768,1.79302
5639.62799,1.79331
5638.59830,1.79336
5637.56860,1.79318
5636.53891,1.79277
5635.50922,1.79217
5634.47952,1.79142
5633.44983,1.79055
5632.42014,1.78961
5631.39045,1.78867
5630.36075,1.78777
5629.33106,1.78697
5628.30137,1.78631
5627.27167,1.78583
5626.24198,1.78556
5625.21229,1.78551
5624.18260,1.78569
5623.15290,1.78609
5622.12321,1.78670
5621.09352,1.78748
5620.06382,1.78840
5619.03413,1.78944
5618.00444,1.79057
5616.97475,1.79173
5615.94505,1.79290
5614.91536,1.79403
5613.88567,1.79510
5612.85597,1.79608
5611.82628,1.79692
5610.79659,1.79763
5609.76690,1.79820
5608.73720,1.79863
5607.70751,1.79892
5606.67782,1.79910
5605.64812,1.79918
5604.61843,1.79919
5603.58874,1.79913
5602.55905,1.79903
5601.52935,1.79889
5600.49966,1.79874
5599.46997,1.79856
5598.44027,1.79836
5597.41058,1.79813
5596.38089,1.79786
5595.35119,1.79754
5594.32150,1.79715
5593.29181,1.79668
5592.26212,1.79610
5591.23242,1.79540
5590.20273,1.79456
5589.17304,1.79358
5588.14334,1.79247
5587.11365,1.79124
5586.08396,1.78991
5585.05427,1.78854
5584.02457,1.78716
5582.99488,1.78582
5581.96519,1.78456
5580.93549,1.78344
5579.90580,1.78250
5578.87611,1.78178
5577.84642,1.78133
5576.81672,1.78115
5575.78703,1.78127
5574.75734,1.78169
5573.72764,1.78240
5572.69795,1.78337
5571.66826,1.78459
5570.63857,1.78601
5569.60887,1.78760
5568.57918,1.78931
5567.54949,1.79110
5566.51979,1.79293
5565.49010,1.79476
5564.46041,1.79658
5563.43072,1.79835
5562.40102,1.80006
5561.37133,1.80169
5560.34164,1.80323
5559.31194,1.80467
5558.28225,1.80600
5557.25256,1.80722
5556.22286,1.80832
5555.19317,1.80931
5554.16348,1.81016
5553.13379,1.81087
5552.10409,1.81144
5551.07440,1.81185
5550.04471,1.81210
5549.01501,1.81217
5547.98532,1.81207
5546.95563,1.81178
5545.92594,1.81133
5544.89624,1.81071
5543.86655,1.80995
5542.83686,1.80906
5541.80716,1.80806
5540.77747,1.80698
5539.74778,1.80583
5538.71809,1.80463
5537.68839,1.80340
5536.65870,1.80215
5535.62901,1.80091
5534.59931,1.79970
5533.56962,1.79856
5532.53993,1.79751
5531.51024,1.79658
5530.48054,1.79579
5529.45085,1.79519
5528.42116,1.79481
5527.39146,1.79466
5526.36177,1.79479
5525.33208,1.79520
5524.30239,1.79591
5523.27269,1.79694
5522.24300,1.79828
5521.21331,1.79992
5520.18361,1.80182
5519.15392,1.80395
5518.12423,1.80623
5517.09453,1.80859
5516.06484,1.81094
5515.03515,1.81320
5514.00546,1.81528
5512.97576,1.81711
5511.94607,1.81863
5510.91638,1.81980
5509.88668,1.82058
5508.85699,1.82096
5507.82730,1.82096
5506.79761,1.82060
5505.76791,1.81993
5504.73822,1.81901
5503.70853,1.81793
5502.67883,1.81675
5501.64914,1.81558
5500.61945,1.81449
5499.58976,1.81356
5498.56006,1.81285
5497.53037,1.81241
5496.50068,1.81224
5495.47098,1.81233
5494.44129,1.81268
5493.41160,1.81322
5492.38191,1.81392
5491.35221,1.81470
5490.32252,1.81552
5489.29283,1.81632
5488.26313,1.81703
5487.23344,1.81764
5486.20375,1.81808
5485.17406,1.81835
5484.14436,1.81843
5483.11467,1.81833
5482.08498,1.81807
5481.05528,1.81768
5480.02559,1.81720
5478.99590,1.81669
5477.96620,1.81619
5476.93651,1.81576
5475.90682,1.81545
5474.87713,1.81527
5473.84743,1.81525
5472.81774,1.81539
5471.78805,1.81568
5470.75835,1.81611
5469.72866,1.81665
5468.69897,1.81727
5467.66928,1.81796
5466.63958,1.81869
5465.60989,1.81943
5464.58020,1.82015
5463.55050,1.82084
5462.52081,1.82149
5461.49112,1.82207
5460.46143,1.82260
5459.43173,1.82307
5458.40204,1.82350
5457.37235,1.82390
5456.34265,1.82431
5455.31296,1.82474
5454.28327,1.82521
5453.25358,1.82573
5452.22388,1.82631
5451.19419,1.82695
5450.16450,1.82762
5449.13480,1.82830
5448.10511,1.82897
5447.07542,1.82958
5446.04573,1.83010
5445.01603,1.83051
5443.98634,1.83077
5442.95665,1.83086
5441.92695,1.83078
5440.89726,1.83050
5439.86757,1.83003
5438.83787,1.82939
5437.80818,1.82858
5436.77849,1.82765
5435.74880,1.82663
5434.71910,1.82559
5433.68941,1.82456
5432.65972,1.82361
5431.63002,1.82278
5430.60033,1.82212
5429.57064,1.82165
5428.54095,1.82139
5427.51125,1.82135
5426.48156,1.82150
5425.45187,1.82182
5424.42217,1.82226
5423.39248,1.82279
5422.36279,1.82334
5421.33310,1.82386
5420.30340,1.82430
5419.27371,1.82460
5418.24402,1.82472
5417.21432,1.82462
5416.18463,1.82428
5415.15494,1.82369
5414.12525,1.82286
5413.09555,1.82180
5412.06586,1.82056
5411.03617,1.81918
5410.00647,1.81772
5408.97678,1.81625
5407.94709,1.81484
5406.91740,1.81354
5405.88770,1.81242
5404.85801,1.81152
5403.82832,1.81088
5402.79862,1.81054
5401.76893,1.81051
5400.73924,1.81078
5399.70954,1.81135
5398.67985,1.81220
5397.65016,1.81328
5396.62047,1.81457
5395.59077,1.81602
5394.56108,1.81755
5393.53139,1.81913
5392.50169,1.82069
5391.47200,1.82219
5390.44231,1.82357
5389.41262,1.82481
5388.38292,1.82589
5387.35323,1.82678
5386.32354,1.82749
5385.29384,1.82803
5384.26415,1.82840
5383.23446,1.82863
5382.20477,1.82875
5381.17507,1.82877
5380.14538,1.82875
5379.11569,1.82871
5378.08599,1.82868
5377.05630,1.82870
5376.02661,1.82878
5374.99692,1.82895
5373.96722,1.82920
5372.93753,1.82956
5371.90784,1.82999
5370.87814,1.83049
5369.84845,1.83104
5368.81876,1.83159
5367.78906,1.83214
5366.75937,1.83265
5365.72968,1.83309
5364.69999,1.83345
5363.67029,1.83369
5362.64060,1.83381
5361.61091,1.83378
5360.58121,1.83358
5359.55152,1.83323
5358.52183,1.83271
5357.49214,1.83206
5356.46244,1.83127
5355.43275,1.83038
5354.40306,1.82941
5353.37336,1.82839
5352.34367,1.82735
5351.31398,1.82630
5350.28429,1.82529
5349.25459,1.82434
5348.22490,1.82346
5347.19521,1.82267
5346.16551,1.82201
5345.13582,1.82148
5344.10613,1.82111
5343.07644,1.82091
5342.04674,1.82089
5341.01705,1.82105
5339.98736,1.82138
5338.95766,1.82189
5337.92797,1.82254
5336.89828,1.82334
5335.86859,1.82426
5334.83889,1.82530
5333.80920,1.82643
5332.77951,1.82763
5331.74981,1.82890
5330.72012,1.83019
5329.69043,1.83149
5328.66073,1.83278
5327.63104,1.83402
5326.60135,1.83519
5325.57166,1.83627
5324.54196,1.83726
5323.51227,1.83813
5322.48258,1.83891
5321.45288,1.83959
5320.42319,1.84019
5319.39350,1.84072
5318.36381,1.84120
5317.33411,1.84165
5316.30442,1.84209
5315.27473,1.84255
5314.24503,1.84305
5313.21534,1.84363
5312.18565,1.84431
5311.15596,1.84512
5310.12626,1.84608
5309.09657,1.84721
5308.06688,1.84851
5307.03718,1.84997
5306.00749,1.85158
5304.97780,1.85332
5303.94811,1.85515
5302.91841,1.85703
5301.88872,1.85893
5300.85903,1.86079
5299.82933,1.86256
5298.79964,1.86422
5297.76995,1.86570
5296.74026,1.86698
5295.71056,1.86800
5294.68087,1.86874
5293.65118,1.86920
5292.62148,1.86936
5291.59179,1.86924
5290.56210,1.86886
5289.53240,1.86828
5288.50271,1.86753
5287.47302,1.86667
5286.44333,1.86578
5285.41363,1.86492
5284.38394,1.86417
5283.35425,1.86359
5282.32455,1.86324
5281.29486,1.86317
5280.26517,1.86343
5279.23548,1.86402
5278.20578,1.86497
5277.17609,1.86627
5276.14640,1.86790
5275.11670,1.86983
5274.08701,1.87202
5273.05732,1.87441
5272.02763,1.87694
5270.99793,1.87954
5269.96824,1.88217
5268.93855,1.88476
5267.90885,1.88726
5266.87916,1.88964
5265.84947,1.89188
5264.81978,1.89395
5263.79008,1.89584
5262.76039,1.89756
5261.73070,1.89912
5260.70100,1.90052
5259.67131,1.90180
5258.64162,1.90296
5257.61193,1.90403
5256.58223,1.90501
5255.55254,1.90591
5254.52285,1.90673
5253.49315,1.90750
5252.46346,1.90820
5251.43377,1.90884
5250.40407,1.90941
5249.37438,1.90990
5248.34469,1.91029
5247.31500,1.91059
5246.28530,1.91078
5245.25561,1.91089
5244.22592,1.91093
5243.19622,1.91092
5242.16653,1.91090
5241.13684,1.91090
5240.10715,1.91096
5239.07745,1.91112
5238.04776,1.91141
5237.01807,1.91188
5235.98837,1.91257
5234.95868,1.91349
5233.92899,1.91467
5232.89930,1.91612
5231.86960,1.91784
5230.83991,1.91984
5229.81022,1.92208
5228.78052,1.92455
5227.75083,1.92720
5226.72114,1.92996
5225.69145,1.93277
5224.66175,1.93554
5223.63206,1.93819
5222.60237,1.94067
5221.57267,1.94290
5220.54298,1.94484
5219.51329,1.94644
5218.48360,1.94767
5217.45390,1.94852
5216.42421,1.94897
5215.39452,1.94905
5214.36482,1.94877
5213.33513,1.94818
5212.30544,1.94733
5211.27574,1.94630
5210.24605,1.94515
5209.21636,1.94399
5208.18667,1.94287
5207.15697,1.94189
5206.12728,1.94111
5205.09759,1.94056
5204.06789,1.94029
5203.03820,1.94029
5202.00851,1.94056
5200.97882,1.94108
5199.94912,1.94183
5198.91943,1.94277
5197.88974,1.94386
5196.86004,1.94504
5195.83035,1.94628
5194.80066,1.94750
5193.77097,1.94866
5192.74127,1.94969
5191.71158,1.95054
5190.68189,1.95118
5189.65219,1.95157
5188.62250,1.95169
5187.59281,1.95156
5186.56312,1.95118
5185.53342,1.95058
5184.50373,1.94979
5183.47404,1.94883
5182.44434,1.94776
5181.41465,1.94662
5180.38496,1.94544
5179.35527,1.94430
5178.32557,1.94323
5177.29588,1.94230
5176.26619,1.94156
5175.23649,1.94107
5174.20680,1.94087
5173.17711,1.94100
5172.14741,1.94146
5171.11772,1.94227
5170.08803,1.94340
5169.05834,1.94482
5168.02864,1.94647
5166.99895,1.94832
5165.96926,1.95028
5164.93956,1.95229
5163.90987,1.95428
5162.88018,1.95618
5161.85049,1.95792
5160.82079,1.95943
5159.79110,1.96065
5158.76141,1.96154
5157.73171,1.96205
5156.70202,1.96218
5155.67233,1.96192
5154.64264,1.96129
5153.61294,1.96033
5152.58325,1.95908
5151.55356,1.95760
5150.52386,1.95594
5149.49417,1.95416
5148.46448,1.95232
5147.43479,1.95046
5146.40509,1.94862
5145.37540,1.94686
5144.34571,1.94518
5143.31601,1.94364
5142.28632,1.94223
5141.25663,1.94099
5140.22694,1.93993
5139.19724,1.93905
5138.16755,1.93836
5137.13786,1.93785
5136.10816,1.93751
5135.07847,1.93733
5134.04878,1.93729
5133.01908,1.93738
5131.98939,1.93758
5130.95970,1.93788
5129.93001,1.93826
5128.90031,1.93872
5127.87062,1.93922
5126.84093,1.93975
5125.81123,1.94026
5124.78154,1.94075
5123.75185,1.94117
5122.72216,1.94151
5121.69246,1.94176
5120.66277,1.94189
5119.63308,1.94192
5118.60338,1.94184
5117.57369,1.94168
5116.54400,1.94145
5115.51431,1.94119
5114.48461,1.94091
5113.45492,1.94063
5112.42523,1.94038
5111.39553,1.94019
5110.36584,1.94005
5109.33615,1.94000
5108.30646,1.94004
5107.27676,1.94017
5106.24707,1.94039
5105.21738,1.94070
5104.18768,1.94106
5103.15799,1.94145
5102.12830,1.94184
5101.09861,1.94218
5100.06891,1.94244
5099.03922,1.94261
5098.00953,1.94265
5096.97983,1.94255
5095.95014,1.94231
5094.92045,1.94191
5093.89075,1.94137
5092.86106,1.94070
5091.83137,1.93991
5090.80168,1.93901
5089.77198,1.93804
5088.74229,1.93702
5087.71260,1.93597
5086.68290,1.93492
5085.65321,1.93390
5084.62352,1.93293
5083.59383,1.93204
5082.56413,1.93123
5081.53444,1.93052
5080.50475,1.92989
5079.47505,1.92935
5078.44536,1.92887
5077.41567,1.92846
5076.38598,1.92810
5075.35628,1.92779
5074.32659,1.92752
5073.29690,1.92729
5072.26720,1.92710
5071.23751,1.92692
5070.20782,1.92676
5069.17813,1.92662
5068.14843,1.92649
5067.11874,1.92636
5066.08905,1.92625
5065.05935,1.92615
5064.02966,1.92606
5062.99997,1.92600
5061.97027,1.92596
5060.94058,1.92594
5059.91089,1.92595
5058.88120,1.92598
5057.85150,1.92602
5056.82181,1.92605
5055.79212,1.92607
5054.76242,1.92607
5053.73273,1.92602
5052.70304,1.92593
5051.67335,1.92580
5050.64365,1.92562
5049.61396,1.92539
5048.58427,1.92510
5047.55457,1.92476
5046.52488,1.92436
5045.49519,1.92390
5044.46550,1.92340
5043.43580,1.92286
5042.40611,1.92231
5041.37642,1.92174
5040.34672,1.92118
5039.31703,1.92066
5038.28734,1.92017
5037.25765,1.91975
5036.22795,1.91940
5035.19826,1.91913
5034.16857,1.91894
5033.13887,1.91883
5032.10918,1.91881
5031.07949,1.91887
5030.04980,1.91901
5029.02010,1.91923
5027.99041,1.91954
5026.96072,1.91993
5025.93102,1.92039
5024.90133,1.92093
5023.87164,1.92154
5022.84194,1.92220
5021.81225,1.92292
5020.78256,1.92368
5019.75287,1.92447
5018.72317,1.92529
5017.69348,1.92611
5016.66379,1.92692
5015.63409,1.92770
5014.60440,1.92842
5013.57471,1.92906
5012.54502,1.92958
5011.51532,1.92997
5010.48563,1.93020
5009.45594,1.93025
5008.42624,1.93011
5007.39655,1.92976
5006.36686,1.92923
5005.33717,1.92851
5004.30747,1.92762
5003.27778,1.92659
5002.24809,1.92545
5001.21839,1.92421
5000.18870,1.92294
4999.15901,1.92165
4998.12932,1.92040
4997.09962,1.91921
4996.06993,1.91813
4995.04024,1.91717
4994.01054,1.91635
4992.98085,1.91569
4991.95116,1.91518
4990.92147,1.91481
4989.89177,1.91457
4988.86208,1.91444
4987.83239,1.91442
4986.80269,1.91447
4985.77300,1.91457
4984.74331,1.91471
4983.71361,1.91486
4982.68392,1.91501
4981.65423,1.91515
4980.62454,1.91526
4979.59484,1.91535
4978.56515,1.91540
4977.53546,1.91544
4976.50576,1.91545
4975.47607,1.91545
4974.44638,1.91544
4973.41669,1.91543
4972.38699,1.91543
4971.35730,1.91543
4970.32761,1.91543
4969.29791,1.91543
4968.26822,1.91542
4967.23853,1.91540
4966.20884,1.91535
4965.17914,1.91526
4964.14945,1.91515
4963.11976,1.91499
4962.09006,1.91479
4961.06037,1.91454
4960.03068,1.91425
4959.00099,1.91391
4957.97129,1.91356
4956.94160,1.91318
4955.91191,1.91282
4954.88221,1.91248
4953.85252,1.91218
4952.82283,1.91194
4951.79314,1.91177
4950.76344,1.91169
4949.73375,1.91169
4948.70406,1.91178
4947.67436,1.91195
4946.64467,1.91220
4945.61498,1.91252
4944.58528,1.91289
4943.55559,1.91330
4942.52590,1.91374
4941.49621,1.91419
4940.46651,1.91464
4939.43682,1.91506
4938.40713,1.91546
4937.37743,1.91581
4936.34774,1.91611
4935.31805,1.91636
4934.28836,1.91656
4933.25866,1.91674
4932.22897,1.91689
4931.19928,1.91702
4930.16958,1.91715
4929.13989,1.91729
4928.11020,1.91744
4927.08051,1.91759
4926.05081,1.91776
4925.02112,1.91793
4923.99143,1.91811
4922.96173,1.91828
4921.93204,1.91843
4920.90235,1.91857
4919.87266,1.91868
4918.84296,1.91876
4917.81327,1.91881
4916.78358,1.91881
4915.75388,1.91876
4914.72419,1.91866
4913.69450,1.91850
4912.66481,1.91831
4911.63511,1.91807
4910.60542,1.91780
4909.57573,1.91751
4908.54603,1.91722
4907.51634,1.91693
4906.48665,1.91666
4905.45695,1.91641
4904.42726,1.91618
4903.39757,1.91599
4902.36788,1.91582
4901.33818,1.91567
4900.30849,1.91554
4899.27880,1.91541
4898.24910,1.91530
4897.21941,1.91519
4896.18972,1.91508
4895.16003,1.91498
4894.13033,1.91487
4893.10064,1.91477
4892.07095,1.91467
4891.04125,1.91458
4890.01156,1.91451
4888.98187,1.91446
4887.95218,1.91444
4886.92248,1.91447
4885.89279,1.91454
4884.86310,1.91468
4883.83340,1.91487
4882.80371,1.91513
4881.77402,1.91547
4880.74433,1.91586
4879.71463,1.91632
4878.68494,1.91684
4877.65525,1.91739
4876.62555,1.91797
4875.59586,1.91856
4874.56617,1.91916
4873.53648,1.91975
4872.50678,1.92031
4871.47709,1.92084
4870.44740,1.92133
4869.41770,1.92178
4868.38801,1.92219
4867.35832,1.92256
4866.32862,1.92292
4865.29893,1.92325
4864.26924,1.92359
4863.23955,1.92393
4862.20985,1.92428
4861.18016,1.92467
4860.15047,1.92509
4859.12077,1.92557
4858.09108,1.92610
4857.06139,1.92669
4856.03170,1.92734
4855.00200,1.92804
4853.97231,1.92879
4852.94262,1.92956
4851.91292,1.93034
4850.88323,1.93110
4849.85354,1.93182
4848.82385,1.93247
4847.79415,1.93304
4846.76446,1.93352
4845.73477,1.93388
4844.70507,1.93413
4843.67538,1.93427
4842.64569,1.93429
4841.61600,1.93420
4840.58630,1.93400
4839.55661,1.93371
4838.52692,1.93333
4837.49722,1.93289
4836.46753,1.93240
4835.43784,1.93188
4834.40815,1.93136
4833.37845,1.93086
4832.34876,1.93040
4831.31907,1.93000
4830.28937,1.92966
4829.25968,1.92940
4828.22999,1.92922
4827.20029,1.92911
4826.17060,1.92909
4825.14091,1.92916
4824.11122,1.92931
4823.08152,1.92954
4822.05183,1.92986
4821.02214,1.93025
4819.99244,1.93071
4818.96275,1.93122
4817.93306,1.93177
4816.90337,1.93234
4815.87367,1.93293
4814.84398,1.93351
4813.81429,1.93408
4812.78459,1.93462
4811.75490,1.93515
4810.72521,1.93565
4809.69552,1.93613
4808.66582,1.93658
4807.63613,1.93700
4806.60644,1.93740
4805.57674,1.93776
4804.54705,1.93810
4803.51736,1.93840
4802.48767,1.93868
4801.45797,1.93892
4800.42828,1.93912
4799.39859,1.93928
4798.36889,1.93940
4797.33920,1.93947
4796.30951,1.93946
4795.27982,1.93938
4794.25012,1.93922
4793.22043,1.93896
4792.19074,1.93860
4791.16104,1.93815
4790.13135,1.93762
4789.10166,1.93701
4788.07196,1.93635
4787.04227,1.93566
4786.01258,1.93496
4784.98289,1.93427
4783.95319,1.93362
4782.92350,1.93304
4781.89381,1.93253
4780.86411,1.93212
4779.83442,1.93182
4778.80473,1.93164
4777.77504,1.93158
4776.74534,1.93166
4775.71565,1.93185
4774.68596,1.93216
4773.65626,1.93255
4772.62657,1.93302
4771.59688,1.93353
4770.56719,1.93406
4769.53749,1.93459
4768.50780,1.93508
4767.47811,1.93552
4766.44841,1.93590
4765.41872,1.93619
4764.38903,1.93640
4763.35934,1.93652
4762.32964,1.93655
4761.29995,1.93649
4760.27026,1.93635
4759.24056,1.93615
4758.21087,1.93589
4757.18118,1.93560
4756.15148,1.93529
4755.12179,1.93500
4754.09210,1.93474
4753.06241,1.93454
4752.03271,1.93443
4751.00302,1.93441
4749.97333,1.93451
4748.94363,1.93473
4747.91394,1.93506
4746.88425,1.93552
4745.85456,1.93609
4744.82486,1.93679
4743.79517,1.93759
4742.76548,1.93848
4741.73578,1.93945
4740.70609,1.94049
4739.67640,1.94156
4738.64671,1.94265
4737.61701,1.94374
4736.58732,1.94479
4735.55763,1.94579
4734.52793,1.94672
4733.49824,1.94755
4732.46855,1.94827
4731.43886,1.94887
4730.40916,1.94933
4729.37947,1.94964
4728.34978,1.94980
4727.32008,1.94980
4726.29039,1.94964
4725.26070,1.94932
4724.23101,1.94884
4723.20131,1.94823
4722.17162,1.94751
4721.14193,1.94670
4720.11223,1.94584
4719.08254,1.94494
4718.05285,1.94406
4717.02315,1.94321
4715.99346,1.94243
4714.96377,1.94175
4713.93408,1.94119
4712.90438,1.94077
4711.87469,1.94052
4710.84500,1.94044
4709.81530,1.94052
4708.78561,1.94076
4707.75592,1.94114
4706.72623,1.94164
4705.69653,1.94223
4704.66684,1.94287
4703.63715,1.94354
4702.60745,1.94420
4701.57776,1.94480
4700.54807,1.94532
4699.51838,1.94574
4698.48868,1.94604
4697.45899,1.94621
4696.42930,1.94626
4695.39960,1.94618
4694.36991,1.94600
4693.34022,1.94574
4692.31053,1.94541
4691.28083,1.94506
4690.25114,1.94470
4689.22145,1.94439
4688.19175,1.94414
4687.16206,1.94399
4686.13237,1.94394
4685.10268,1.94402
4684.07298,1.94423
4683.04329,1.94458
4682.01360,1.94507
4680.98390,1.94567
4679.95421,1.94638
4678.92452,1.94716
4677.89482,1.94798
4676.86513,1.94881
4675.83544,1.94962
4674.80575,1.95039
4673.77605,1.95108
4672.74636,1.95168
4671.71667,1.95215
4670.68697,1.95248
4669.65728,1.95265
4668.62759,1.95267
4667.59790,1.95253
4666.56820,1.95224
4665.53851,1.95180
4664.50882,1.95123
4663.47912,1.95054
4662.44943,1.94975
4661.41974,1.94889
4660.39005,1.94799
4659.36035,1.94707
4658.33066,1.94616
4657.30097,1.94527
4656.27127,1.94444
4655.24158,1.94366
4654.21189,1.94296
4653.18220,1.94235
4652.15250,1.94182
4651.12281,1.94139
4650.09312,1.94104
4649.06342,1.94076
4648.03373,1.94056
4647.00404,1.94041
4645.97435,1.94031
4644.94465,1.94025
4643.91496,1.94022
4642.88527,1.94020
4641.85557,1.94020
4640.82588,1.94020
4639.79619,1.94019
4638.76649,1.94019
4637.73680,1.94019
4636.70711,1.94021
4635.67742,1.94025
4634.64772,1.94031
4633.61803,1.94040
4632.58834,1.94053
4631.55864,1.94068
4630.52895,1.94086
4629.49926,1.94106
4628.46957,1.94127
4627.43987,1.94148
4626.41018,1.94168
4625.38049,1.94185
4624.35079,1.94199
4623.32110,1.94209
4622.29141,1.94216
4621.26172,1.94218
4620.23202,1.94216
4619.20233,1.94211
4618.17264,1.94202
4617.14294,1.94192
4616.11325,1.94180
4615.08356,1.94167
4614.05387,1.94156
4613.02417,1.94147
4611.99448,1.94141
4610.96479,1.94138
4609.93509,1.94137
4608.90540,1.94139
4607.87571,1.94143
4606.84602,1.94146
4605.81632,1.94148
4604.78663,1.94148
4603.75694,1.94143
4602.72724,1.94132
4601.69755,1.94115
4600.66786,1.94092
4599.63816,1.94063
4598.60847,1.94029
4597.57878,1.93990
4596.54909,1.93948
4595.51939,1.93905
4594.48970,1.93861
4593.46001,1.93819
4592.43031,1.93778
4591.40062,1.93741
4590.37093,1.93708
4589.34124,1.93679
4588.31154,1.93655
4587.28185,1.93634
4586.25216,1.93617
4585.22246,1.93603
4584.19277,1.93589
4583.16308,1.93576
4582.13339,1.93562
4581.10369,1.93546
4580.07400,1.93527
4579.04431,1.93504
4578.01461,1.93480
4576.98492,1.93453
4575.95523,1.93425
4574.92554,1.93398
4573.89584,1.93371
4572.86615,1.93347
4571.83646,1.93325
4570.80676,1.93308
4569.77707,1.93294
4568.74738,1.93283
4567.71769,1.93277
4566.68799,1.93272
4565.65830,1.93271
4564.62861,1.93270
4563.59891,1.93269
4562.56922,1.93267
4561.53953,1.93264
4560.50983,1.93257
4559.48014,1.93248
4558.45045,1.93235
4557.42076,1.93218
4556.39106,1.93199
4555.36137,1.93177
4554.33168,1.93156
4553.30198,1.93135
4552.27229,1.93118
4551.24260,1.93105
4550.21291,1.93098
4549.18321,1.93098
4548.15352,1.93107
4547.12383,1.93125
4546.09413,1.93151
4545.06444,1.93187
4544.03475,1.93231
4543.00506,1.93282
4541.97536,1.93340
4540.94567,1.93401
4539.91598,1.93463
4538.88628,1.93525
4537.85659,1.93584
4536.82690,1.93637
4535.79721,1.93682
4534.76751,1.93717
4533.73782,1.93740
4532.70813,1.93751
4531.67843,1.93748
4530.64874,1.93730
4529.61905,1.93700
4528.58936,1.93656
4527.55966,1.93601
4526.52997,1.93535
4525.50028,1.93462
4524.47058,1.93383
4523.44089,1.93302
4522.41120,1.93220
4521.38150,1.93142
4520.35181,1.93070
4519.32212,1.93005
4518.29243,1.92951
4517.26273,1.92908
4516.23304,1.92877
4515.20335,1.92859
4514.17365,1.92852
4513.14396,1.92856
4512.11427,1.92871
4511.08458,1.92894
4510.05488,1.92924
4509.02519,1.92960
4507.99550,1.92999
4506.96580,1.93040
4505.93611,1.93081
4504.90642,1.93120
4503.87673,1.93155
4502.84703,1.93187
4501.81734,1.93215
4500.78765,1.93238
4499.75795,1.93258
4498.72826,1.93276
4497.69857,1.93292
4496.66888,1.93308
4495.63918,1.93326
4494.60949,1.93345
4493.57980,1.93367
4492.55010,1.93394
4491.52041,1.93424
4490.49072,1.93460
4489.46103,1.93501
4488.43133,1.93548
4487.40164,1.93601
4486.37195,1.93659
4485.34225,1.93722
4484.31256,1.93790
4483.28287,1.93861
4482.25317,1.93933
4481.22348,1.94006
4480.19379,1.94078
4479.16410,1.94148
4478.13440,1.94215
4477.10471,1.94279
4476.07502,1.94339
4475.04532,1.94393
4474.01563,1.94444
4472.98594,1.94489
4471.95625,1.94530
4470.92655,1.94565
4469.89686,1.94597
4468.86717,1.94626
4467.83747,1.94654
4466.80778,1.94681
4465.77809,1.94709
4464.74840,1.94740
4463.71870,1.94774
4462.68901,1.94814
4461.65932,1.94860
4460.62962,1.94912
4459.59993,1.94971
4458.57024,1.95036
4457.54055,1.95108
4456.51085,1.95186
4455.48116,1.95270
4454.45147,1.95358
4453.42177,1.95451
4452.39208,1.95548
4451.36239,1.95648
4450.33269,1.95750
4449.30300,1.95854
4448.27331,1.95959
4447.24362,1.96065
4446.21392,1.96172
4445.18423,1.96282
4444.15454,1.96394
4443.12484,1.96510
4442.09515,1.96629
4441.06546,1.96752
4440.03577,1.96880
4439.00607,1.97013
4437.97638,1.97149
4436.94669,1.97289
4435.91699,1.97431
4434.88730,1.97575
4433.85761,1.97719
4432.82792,1.97862
4431.79822,1.98002
4430.76853,1.98137
4429.73884,1.98266
4428.70914,1.98387
4427.67945,1.98498
4426.64976,1.98600
4425.62007,1.98690
4424.59037,1.98769
4423.56068,1.98838
4422.53099,1.98896
4421.50129,1.98946
4420.47160,1.98990
4419.44191,1.99029
4418.41222,1.99065
4417.38252,1.99102
4416.35283,1.99140
4415.32314,1.99182
4414.29344,1.99230
4413.26375,1.99286
4412.23406,1.99350
4411.20436,1.99424
4410.17467,1.99509
4409.14498,1.99605
4408.11529,1.99710
4407.08559,1.99824
4406.05590,1.99945
4405.02621,2.00073
4403.99651,2.00203
4402.96682,2.00336
4401.93713,2.00468
4400.90744,2.00597
4399.87774,2.00722
4398.84805,2.00841
4397.81836,2.00952
4396.78866,2.01055
4395.75897,2.01150
4394.72928,2.01235
4393.69959,2.01311
4392.66989,2.01379
4391.64020,2.01439
4390.61051,2.01493
4389.58081,2.01543
4388.55112,2.01590
4387.52143,2.01637
4386.49174,2.01685
4385.46204,2.01735
4384.43235,2.01791
4383.40266,2.01852
4382.37296,2.01921
4381.34327,2.01997
4380.31358,2.02081
4379.28389,2.02172
4378.25419,2.02271
4377.22450,2.02376
4376.19481,2.02486
4375.16511,2.02599
4374.13542,2.02715
4373.10573,2.02830
4372.07603,2.02945
4371.04634,2.03056
4370.01665,2.03164
4368.98696,2.03267
4367.95726,2.03365
4366.92757,2.03458
4365.89788,2.03545
4364.86818,2.03627
4363.83849,2.03705
4362.80880,2.03781
4361.77911,2.03854
4360.74941,2.03928
4359.71972,2.04002
4358.69003,2.04079
4357.66033,2.04159
4356.63064,2.04243
4355.60095,2.04331
4354.57126,2.04423
4353.54156,2.04520
4352.51187,2.04619
4351.48218,2.04722
4350.45248,2.04826
4349.42279,2.04933
4348.39310,2.05040
4347.36341,2.05148
4346.33371,2.05257
4345.30402,2.05367
4344.27433,2.05480
4343.24463,2.05596
4342.21494,2.05716
4341.18525,2.05843
4340.15556,2.05977
4339.12586,2.06120
4338.09617,2.06274
4337.06648,2.06439
4336.03678,2.06614
4335.00709,2.06798
4333.97740,2.06990
4332.94770,2.07185
4331.91801,2.07379
4330.88832,2.07568
4329.85863,2.07745
4328.82893,2.07905
4327.79924,2.08040
4326.76955,2.08144
4325.73985,2.08213
4324.71016,2.08241
4323.68047,2.08224
4322.65078,2.08161
4321.62108,2.08049
4320.59139,2.07891
4319.56170,2.07688
4318.53200,2.07445
4317.50231,2.07167
4316.47262,2.06861
4315.44293,2.06534
4314.41323,2.06193
4313.38354,2.05847
4312.35385,2.05503
4311.32415,2.05167
4310.29446,2.04846
4309.26477,2.04545
4308.23508,2.04267
4307.20538,2.04015
4306.17569,2.03792
4305.14600,2.03598
4304.11630,2.03432
4303.08661,2.03294
4302.05692,2.03182
4301.02723,2.03095
4299.99753,2.03030
4298.96784,2.02986
4297.93815,2.02962
4296.90845,2.02954
4295.87876,2.02963
4294.84907,2.02986
4293.81937,2.03023
4292.78968,2.03072
4291.75999,2.03131
4290.73030,2.03200
4289.70060,2.03276
4288.67091,2.03357
4287.64122,2.03440
4286.61152,2.03523
4285.58183,2.03604
4284.55214,2.03680
4283.52245,2.03749
4282.49275,2.03808
4281.46306,2.03857
4280.43337,2.03894
4279.40367,2.03920
4278.37398,2.03935
4277.34429,2.03940
4276.31460,2.03939
4275.28490,2.03935
4274.25521,2.03929
4273.22552,2.03927
4272.19582,2.03932
4271.16613,2.03948
4270.13644,2.03978
4269.10675,2.04026
4268.07705,2.04093
4267.04736,2.04181
4266.01767,2.04289
4264.98797,2.04417
4263.95828,2.04562
4262.92859,2.04722
4261.89890,2.04891
4260.86920,2.05066
4259.83951,2.05240
4258.80982,2.05408
4257.78012,2.05563
4256.75043,2.05702
4255.72074,2.05818
4254.69104,2.05908
4253.66135,2.05968
4252.63166,2.05995
4251.60197,2.05988
4250.57227,2.05946
4249.54258,2.05870
4248.51289,2.05761
4247.48319,2.05623
4246.45350,2.05459
4245.42381,2.05274
4244.39412,2.05074
4243.36442,2.04865
4242.33473,2.04651
4241.30504,2.04439
4240.27534,2.04233
4239.24565,2.04040
4238.21596,2.03862
4237.18627,2.03704
4236.15657,2.03569
4235.12688,2.03459
4234.09719,2.03375
4233.06749,2.03319
4232.03780,2.03289
4231.00811,2.03286
4229.97842,2.03307
4228.94872,2.03349
4227.91903,2.03409
4226.88934,2.03485
4225.85964,2.03574
4224.82995,2.03671
4223.80026,2.03774
4222.77057,2.03880
4221.74087,2.03987
4220.71118,2.04093
4219.68149,2.04195
4218.65179,2.04294
4217.62210,2.04387
4216.59241,2.04475
4215.56271,2.04557
4214.53302,2.04634
4213.50333,2.04707
4212.47364,2.04775
4211.44394,2.04841
4210.41425,2.04905
4209.38456,2.04968
4208.35486,2.05030
4207.32517,2.05092
4206.29548,2.05152
4205.26579,2.05212
4204.23609,2.05271
4203.20640,2.05329
4202.17671,2.05384
4201.14701,2.05437
4200.11732,2.05486
4199.08763,2.05531
4198.05794,2.05571
4197.02824,2.05606
4195.99855,2.05636
4194.96886,2.05661
4193.93916,2.05681
4192.90947,2.05696
4191.87978,2.05708
4190.85009,2.05718
4189.82039,2.05727
4188.79070,2.05735
4187.76101,2.05744
4186.73131,2.05755
4185.70162,2.05768
4184.67193,2.05784
4183.64224,2.05803
4182.61254,2.05823
4181.58285,2.05846
4180.55316,2.05870
4179.52346,2.05894
4178.49377,2.05917
4177.46408,2.05939
4176.43438,2.05959
4175.40469,2.05975
4174.37500,2.05986
4173.34531,2.05992
4172.31561,2.05992
4171.28592,2.05986
4170.25623,2.05974
4169.22653,2.05958
4168.19684,2.05938
4167.16715,2.05915
4166.13746,2.05892
4165.10776,2.05869
4164.07807,2.05848
4163.04838,2.05829
4162.01868,2.05815
4160.98899,2.05804
4159.95930,2.05797
4158.92961,2.05794
4157.89991,2.05796
4156.87022,2.05800
4155.84053,2.05807
4154.81083,2.05817
4153.78114,2.05827
4152.75145,2.05839
4151.72176,2.05849
4150.69206,2.05858
4149.66237,2.05865
4148.63268,2.05869
4147.60298,2.05871
4146.57329,2.05870
4145.54360,2.05868
4144.51390,2.05866
4143.48421,2.05864
4142.45452,2.05865
4141.42483,2.05867
4140.39513,2.05873
4139.36544,2.05883
4138.33575,2.05896
4137.30605,2.05913
4136.27636,2.05933
4135.24667,2.05957
4134.21698,2.05982
4133.18728,2.06010
4132.15759,2.06039
4131.12790,2.06068
4130.09820,2.06096
4129.06851,2.06124
4128.03882,2.06149
4127.00913,2.06171
4125.97943,2.06190
4124.94974,2.06206
4123.92005,2.06218
4122.89035,2.06228
4121.86066,2.06236
4120.83097,2.06243
4119.80128,2.06250
4118.77158,2.06257
4117.74189,2.06264
4116.71220,2.06273
4115.68250,2.06284
4114.65281,2.06297
4113.62312,2.06313
4112.59343,2.06331
4111.56373,2.06351
4110.53404,2.06373
4109.50435,2.06396
4108.47465,2.06420
4107.44496,2.06444
4106.41527,2.06468
4105.38557,2.06491
4104.35588,2.06512
4103.32619,2.06532
4102.29650,2.06549
4101.26680,2.06563
4100.23711,2.06576
4099.20742,2.06586
4098.17772,2.06595
4097.14803,2.06604
4096.11834,2.06612
4095.08865,2.06621
4094.05895,2.06631
4093.02926,2.06644
4091.99957,2.06660
4090.96987,2.06679
4089.94018,2.06701
4088.91049,2.06727
4087.88080,2.06756
4086.85110,2.06787
4085.82141,2.06819
4084.79172,2.06852
4083.76202,2.06883
4082.73233,2.06913
4081.70264,2.06939
4080.67295,2.06960
4079.64325,2.06975
4078.61356,2.06983
4077.58387,2.06984
4076.55417,2.06978
4075.52448,2.06964
4074.49479,2.06944
4073.46510,2.06919
4072.43540,2.06890
4071.40571,2.06858
4070.37602,2.06825
4069.34632,2.06793
4068.31663,2.06764
4067.28694,2.06739
4066.25724,2.06719
4065.22755,2.06705
4064.19786,2.06698
4063.16817,2.06697
4062.13847,2.06701
4061.10878,2.06710
4060.07909,2.06722
4059.04939,2.06736
4058.01970,2.06750
4056.99001,2.06762
4055.96032,2.06772
4054.93062,2.06778
4053.90093,2.06778
4052.87124,2.06774
4051.84154,2.06764
4050.81185,2.06749
4049.78216,2.06731
4048.75247,2.06710
4047.72277,2.06689
4046.69308,2.06669
4045.66339,2.06652
4044.63369,2.06641
4043.60400,2.06637
4042.57431,2.06641
4041.54462,2.06655
4040.51492,2.06680
4039.48523,2.06714
4038.45554,2.06758
4037.42584,2.06810
4036.39615,2.06870
4035.36646,2.06935
4034.33677,2.07004
4033.30707,2.07074
4032.27738,2.07144
4031.24769,2.07210
4030.21799,2.07272
4029.18830,2.07328
4028.15861,2.07376
4027.12891,2.07416
4026.09922,2.07447
4025.06953,2.07469
4024.03984,2.07482
4023.01014,2.07486
4021.98045,2.07481
4020.95076,2.07469
4019.92106,2.07449
4018.89137,2.07423
4017.86168,2.07391
4016.83199,2.07353
4015.80229,2.07311
4014.77260,2.07265
4013.74291,2.07214
4012.71321,2.07159
4011.68352,2.07101
4010.65383,2.07039
4009.62414,2.06975
4008.59444,2.06909
4007.56475,2.06840
4006.53506,2.06771
4005.50536,2.06702
4004.47567,2.06634
4003.44598,2.06568
4002.41629,2.06505
4001.38659,2.06446
4000.35690,2.06393
3999.32721,2.06345
3998.29751,2.06305
3997.26782,2.06272
3996.23813,2.06248
3995.20844,2.06232
3994.17874,2.06224
3993.14905,2.06224
3992.11936,2.06231
3991.08966,2.06246
3990.05997,2.06266
3989.03028,2.06291
3988.00058,2.06319
3986.97089,2.06350
3985.94120,2.06382
3984.91151,2.06415
3983.88181,2.06447
3982.85212,2.06477
3981.82243,2.06505
3980.79273,2.06531
3979.76304,2.06553
3978.73335,2.06573
3977.70366,2.06588
3976.67396,2.06601
3975.64427,2.06611
3974.61458,2.06618
3973.58488,2.06623
3972.55519,2.06627
3971.52550,2.06630
3970.49581,2.06632
3969.46611,2.06633
3968.43642,2.06634
3967.40673,2.06634
3966.37703,2.06634
3965.34734,2.06633
3964.31765,2.06632
3963.28796,2.06630
3962.25826,2.06627
3961.22857,2.06624
3960.19888,2.06619
3959.16918,2.06613
3958.13949,2.06606
3957.10980,2.06598
3956.08011,2.06589
3955.05041,2.06580
3954.02072,2.06570
3952.99103,2.06561
3951.96133,2.06554
3950.93164,2.06547
3949.90195,2.06544
3948.87225,2.06543
3947.84256,2.06545
3946.81287,2.06551
3945.78318,2.06559
3944.75348,2.06571
3943.72379,2.06585
3942.69410,2.06601
3941.66440,2.06618
3940.63471,2.06637
3939.60502,2.06654
3938.57533,2.06671
3937.54563,2.06684
3936.51594,2.06694
3935.48625,2.06699
3934.45655,2.06697
3933.42686,2.06688
3932.39717,2.06671
3931.36748,2.06645
3930.33778,2.06611
3929.30809,2.06570
3928.27840,2.06520
3927.24870,2.06464
3926.21901,2.06403
3925.18932,2.06338
3924.15963,2.06271
3923.12993,2.06203
3922.10024,2.06136
3921.07055,2.06072
3920.04085,2.06012
3919.01116,2.05959
3917.98147,2.05912
3916.95178,2.05873
3915.92208,2.05842
3914.89239,2.05820
3913.86270,2.05806
3912.83300,2.05800
3911.80331,2.05799
3910.77362,2.05804
3909.74392,2.05812
3908.71423,2.05822
3907.68454,2.05832
3906.65485,2.05843
3905.62515,2.05851
3904.59546,2.05857
3903.56577,2.05858
3902.53607,2.05855
3901.50638,2.05847
3900.47669,2.05834
3899.44700,2.05816
3898.41730,2.05793
3897.38761,2.05765
3896.35792,2.05734
3895.32822,2.05699
3894.29853,2.05662
3893.26884,2.05624
3892.23915,2.05585
3891.20945,2.05546
3890.17976,2.05508
3889.15007,2.05471
3888.12037,2.05436
3887.09068,2.05404
3886.06099,2.05374
3885.03130,2.05348
3884.00160,2.05328
3882.97191,2.05312
3881.94222,2.05303
3880.91252,2.05299
3879.88283,2.05300
3878.85314,2.05307
3877.82344,2.05320
3876.79375,2.05337
3875.76406,2.05359
3874.73437,2.05384
3873.70467,2.05411
3872.67498,2.05441
3871.64529,2.05472
3870.61559,2.05504
3869.58590,2.05534
3868.55621,2.05563
3867.52652,2.05589
3866.49682,2.05610
3865.46713,2.05628
3864.43744,2.05640
3863.40774,2.05648
3862.37805,2.05651
3861.34836,2.05650
3860.31867,2.05647
3859.28897,2.05640
3858.25928,2.05632
3857.22959,2.05621
3856.19989,2.05609
3855.17020,2.05595
3854.14051,2.05580
3853.11082,2.05562
3852.08112,2.05543
3851.05143,2.05522
3850.02174,2.05498
3848.99204,2.05472
3847.96235,2.05443
3846.93266,2.05411
3845.90297,2.05375
3844.87327,2.05333
3843.84358,2.05287
3842.81389,2.05236
3841.78419,2.05180
3840.75450,2.05121
3839.72481,2.05059
3838.69511,2.04997
3837.66542,2.04936
3836.63573,2.04877
3835.60604,2.04822
3834.57634,2.04771
3833.54665,2.04727
3832.51696,2.04690
3831.48726,2.04661
3830.45757,2.04640
3829.42788,2.04628
3828.39819,2.04626
3827.36849,2.04633
3826.33880,2.04649
3825.30911,2.04674
3824.27941,2.04708
3823.24972,2.04749
3822.22003,2.04796
3821.19034,2.04849
3820.16064,2.04905
3819.13095,2.04965
3818.10126,2.05026
3817.07156,2.05087
3816.04187,2.05148
3815.01218,2.05207
3813.98249,2.05263
3812.95279,2.05314
3811.92310,2.05359
3810.89341,2.05398
3809.86371,2.05429
3808.83402,2.05452
3807.80433,2.05467
3806.77464,2.05473
3805.74494,2.05473
3804.71525,2.05466
3803.68556,2.05453
3802.65586,2.05437
3801.62617,2.05419
3800.59648,2.05401
3799.56678,2.05384
3798.53709,2.05371
3797.50740,2.05362
3796.47771,2.05359
3795.44801,2.05361
3794.41832,2.05370
3793.38863,2.05385
3792.35893,2.05405
3791.32924,2.05429
3790.29955,2.05457
3789.26986,2.05488
3788.24016,2.05520
3787.21047,2.05552
3786.18078,2.05584
3785.15108,2.05613
3784.12139,2.05639
3783.09170,2.05662
3782.06201,2.05682
3781.03231,2.05700
3780.00262,2.05715
3778.97293,2.05730
3777.94323,2.05745
3776.91354,2.05764
3775.88385,2.05786
3774.85416,2.05814
3773.82446,2.05849
3772.79477,2.05891
3771.76508,2.05943
3770.73538,2.06004
3769.70569,2.06074
3768.67600,2.06155
3767.64631,2.06245
3766.61661,2.06344
3765.58692,2.06452
3764.55723,2.06568
3763.52753,2.06690
3762.49784,2.06815
3761.46815,2.06943
3760.43845,2.07071
3759.40876,2.07196
3758.37907,2.07317
3757.34938,2.07433
3756.31968,2.07542
3755.28999,2.07644
3754.26030,2.07737
3753.23060,2.07822
3752.20091,2.07898
3751.17122,2.07965
3750.14153,2.08022
3749.11183,2.08072
3748.08214,2.08114
3747.05245,2.08151
3746.02275,2.08185
3744.99306,2.08216
3743.96337,2.08247
3742.93368,2.08280
3741.90398,2.08318
3740.87429,2.08361
3739.84460,2.08411
3738.81490,2.08468
3737.78521,2.08534
3736.75552,2.08607
3735.72583,2.08690
3734.69613,2.08781
3733.66644,2.08881
3732.63675,2.08991
3731.60705,2.09108
3730.57736,2.09233
3729.54767,2.09364
3728.51798,2.09499
3727.48828,2.09636
3726.45859,2.09776
3725.42890,2.09918
3724.39920,2.10060
3723.36951,2.10205
3722.33982,2.10351
3721.31012,2.10502
3720.28043,2.10657
3719.25074,2.10819
3718.22105,2.10990
3717.19135,2.11170
3716.16166,2.11363
3715.13197,2.11568
3714.10227,2.11788
3713.07258,2.12023
3712.04289,2.12275
3711.01320,2.12543
3709.98350,2.12828
3708.95381,2.13128
3707.92412,2.13441
3706.89442,2.13765
3705.86473,2.14094
3704.83504,2.14424
3703.80535,2.14751
3702.77565,2.15069
3701.74596,2.15376
3700.71627,2.15666
3699.68657,2.15936
3698.65688,2.16184
3697.62719,2.16407
3696.59750,2.16604
3695.56780,2.16775
3694.53811,2.16919
3693.50842,2.17038
3692.47872,2.17133
3691.44903,2.17207
3690.41934,2.17263
3689.38965,2.17306
3688.35995,2.17338
3687.33026,2.17365
3686.30057,2.17391
3685.27087,2.17419
3684.24118,2.17453
3683.21149,2.17495
3682.18179,2.17546
3681.15210,2.17608
3680.12241,2.17683
3679.09272,2.17770
3678.06302,2.17871
3677.03333,2.17986
3676.00364,2.18114
3674.97394,2.18255
3673.94425,2.18409
3672.91456,2.18575
3671.88487,2.18750
3670.85517,2.18934
3669.82548,2.19126
3668.79579,2.19322
3667.76609,2.19522
3666.73640,2.19722
3665.70671,2.19921
3664.67702,2.20116
3663.64732,2.20304
3662.61763,2.20483
3661.58794,2.20649
3660.55824,2.20802
3659.52855,2.20937
3658.49886,2.21053
3657.46917,2.21149
3656.43947,2.21224
3655.40978,2.21278
3654.38009,2.21313
3653.35039,2.21330
3652.32070,2.21331
3651.29101,2.21320
3650.26132,2.21300
3649.23162,2.21276
3648.20193,2.21252
3647.17224,2.21233
3646.14254,2.21222
3645.11285,2.21225
3644.08316,2.21244
3643.05346,2.21283
3642.02377,2.21343
3640.99408,2.21425
3639.96439,2.21530
3638.93469,2.21658
3637.90500,2.21806
3636.87531,2.21972
3635.84561,2.22153
3634.81592,2.22345
3633.78623,2.22543
3632.75654,2.22743
3631.72684,2.22940
3630.69715,2.23128
3629.66746,2.23305
3628.63776,2.23465
3627.60807,2.23607
3626.57838,2.23726
3625.54869,2.23823
3624.51899,2.23895
3623.48930,2.23945
3622.45961,2.23971
3621.42991,2.23976
3620.40022,2.23963
3619.37053,2.23934
3618.34084,2.23894
3617.31114,2.23846
3616.28145,2.23795
3615.25176,2.23745
3614.22206,2.23700
3613.19237,2.23663
3612.16268,2.23637
3611.13299,2.23625
3610.10329,2.23627
3609.07360,2.23645
3608.04391,2.23680
3607.01421,2.23730
3605.98452,2.23794
3604.95483,2.23870
3603.92513,2.23957
3602.89544,2.24050
3601.86575,2.24146
3600.83606,2.24241
3599.80636,2.24333
3598.77667,2.24417
3597.74698,2.24491
3596.71728,2.24552
3595.68759,2.24600
3594.65790,2.24632
3593.62821,2.24650
3592.59851,2.24655
3591.56882,2.24647
3590.53913,2.24629
3589.50943,2.24603
3588.47974,2.24572
3587.45005,2.24540
3586.42036,2.24510
3585.39066,2.24484
3584.36097,2.24466
3583.33128,2.24459
3582.30158,2.24462
3581.27189,2.24477
3580.24220,2.24504
3579.21251,2.24540
3578.18281,2.24585
3577.15312,2.24637
3576.12343,2.24692
3575.09373,2.24748
3574.06404,2.24802
3573.03435,2.24854
3572.00465,2.24899
3570.97496,2.24938
3569.94527,2.24970
3568.91558,2.24993
3567.88588,2.25010
3566.85619,2.25021
3565.82650,2.25028
3564.79680,2.25032
3563.76711,2.25037
3562.73742,2.25043
3561.70773,2.25053
3560.67803,2.25068
3559.64834,2.25088
3558.61865,2.25114
3557.58895,2.25146
3556.55926,2.25183
3555.52957,2.25223
3554.49988,2.25265
3553.47018,2.25309
3552.44049,2.25353
3551.41080,2.25395
3550.38110,2.25435
3549.35141,2.25473
3548.32172,2.25509
3547.29203,2.25542
3546.26233,2.25573
3545.23264,2.25604
3544.20295,2.25634
3543.17325,2.25664
3542.14356,2.25697
3541.11387,2.25733
3540.08418,2.25773
3539.05448,2.25815
3538.02479,2.25861
3536.99510,2.25909
3535.96540,2.25959
3534.93571,2.26008
3533.90602,2.26055
3532.87632,2.26099
3531.84663,2.26138
3530.81694,2.26171
3529.78725,2.26195
3528.75755,2.26211
3527.72786,2.26219
3526.69817,2.26217
3525.66847,2.26206
3524.63878,2.26186
3523.60909,2.26158
3522.57940,2.26123
3521.54970,2.26081
3520.52001,2.26034
3519.49032,2.25983
3518.46062,2.25930
3517.43093,2.25875
3516.40124,2.25821
3515.37155,2.25768
3514.34185,2.25717
3513.31216,2.25670
3512.28247,2.25627
3511.25277,2.25590
3510.22308,2.25559
3509.19339,2.25534
3508.16370,2.25518
3507.13400,2.25510
3506.10431,2.25511
3505.07462,2.25521
3504.04492,2.25540
3503.01523,2.25568
3501.98554,2.25604
3500.95585,2.25647
3499.92615,2.25696
3498.89646,2.25749
3497.86677,2.25806
3496.83707,2.25863
3495.80738,2.25921
3494.77769,2.25976
3493.74799,2.26028
3492.71830,2.26076
3491.68861,2.26117
3490.65892,2.26151
3489.62922,2.26178
3488.59953,2.26197
3487.56984,2.26207
3486.54014,2.26211
3485.51045,2.26207
3484.48076,2.26199
3483.45107,2.26186
3482.42137,2.26171
3481.39168,2.26154
3480.36199,2.26136
3479.33229,2.26120
3478.30260,2.26105
3477.27291,2.26092
3476.24322,2.26082
3475.21352,2.26075
3474.18383,2.26069
3473.15414,2.26066
3472.12444,2.26064
3471.09475,2.26063
3470.06506,2.26062
3469.03537,2.26059
3468.00567,2.26054
3466.97598,2.26046
3465.94629,2.26035
3464.91659,2.26020
3463.88690,2.26001
3462.85721,2.25979
3461.82752,2.25955
3460.79782,2.25930
3459.76813,2.25905
3458.73844,2.25881
3457.70874,2.25859
3456.67905,2.25839
3455.64936,2.25824
3454.61966,2.25812
3453.58997,2.25803
3452.56028,2.25799
3451.53059,2.25796
3450.50089,2.25795
3449.47120,2.25795
3448.44151,2.25795
3447.41181,2.25793
3446.38212,2.25788
3445.35243,2.25779
3444.32274,2.25765
3443.29304,2.25747
3442.26335,2.25724
3441.23366,2.25698
3440.20396,2.25670
3439.17427,2.25642
3438.14458,2.25615
3437.11489,2.25593
3436.08519,2.25578
3435.05550,2.25570
3434.02581,2.25573
3432.99611,2.25587
3431.96642,2.25612
3430.93673,2.25648
3429.90704,2.25695
3428.87734,2.25750
3427.84765,2.25813
3426.81796,2.25881
3425.78826,2.25950
3424.75857,2.26019
3423.72888,2.26084
3422.69919,2.26142
3421.66949,2.26190
3420.63980,2.26226
3419.61011,2.26249
3418.58041,2.26259
3417.55072,2.26256
3416.52103,2.26242
3415.49133,2.26218
3414.46164,2.26187
3413.43195,2.26152
3412.40226,2.26115
3411.37256,2.26079
3410.34287,2.26047
3409.31318,2.26020
3408.28348,2.26001
3407.25379,2.25990
3406.22410,2.25988
3405.19441,2.25995
3404.16471,2.26009
3403.13502,2.26030
3402.10533,2.26056
3401.07563,2.26084
3400.04594,2.26112
3399.01625,2.26137
3397.98656,2.26157
3396.95686,2.26171
3395.92717,2.26178
3394.89748,2.26176
3393.86778,2.26167
3392.83809,2.26151
3391.80840,2.26129
3390.77871,2.26101
3389.74901,2.26070
3388.71932,2.26037
3387.68963,2.26004
3386.65993,2.25971
3385.63024,2.25941
3384.60055,2.25914
3383.57086,2.25891
3382.54116,2.25873
3381.51147,2.25859
3380.48178,2.25851
3379.45208,2.25847
3378.42239,2.25848
3377.39270,2.25853
3376.36300,2.25862
3375.33331,2.25873
3374.30362,2.25887
3373.27393,2.25904
3372.24423,2.25923
3371.21454,2.25943
3370.18485,2.25966
3369.15515,2.25989
3368.12546,2.26013
3367.09577,2.26036
3366.06608,2.26058
3365.03638,2.26077
3364.00669,2.26093
3362.97700,2.26105
3361.94730,2.26111
3360.91761,2.26110
3359.88792,2.26101
3358.85823,2.26084
3357.82853,2.26058
3356.79884,2.26023
3355.76915,2.25980
3354.73945,2.25929
3353.70976,2.25872
3352.68007,2.25811
3351.65038,2.25747
3350.62068,2.25682
3349.59099,2.25618
3348.56130,2.25556
3347.53160,2.25500
3346.50191,2.25450
3345.47222,2.25408
3344.44253,2.25373
3343.41283,2.25349
3342.38314,2.25333
3341.35345,2.25328
3340.32375,2.25331
3339.29406,2.25343
3338.26437,2.25361
3337.23467,2.25386
3336.20498,2.25413
3335.17529,2.25442
3334.14560,2.25471
3333.11590,2.25498
3332.08621,2.25522
3331.05652,2.25540
3330.02682,2.25552
3328.99713,2.25556
3327.96744,2.25553
3326.93775,2.25541
3325.90805,2.25520
3324.87836,2.25492
3323.84867,2.25456
3322.81897,2.25414
3321.78928,2.25368
3320.75959,2.25320
3319.72990,2.25271
3318.70020,2.25224
3317.67051,2.25181
3316.64082,2.25145
3315.61112,2.25117
3314.58143,2.25097
3313.55174,2.25088
3312.52205,2.25089
3311.49235,2.25100
3310.46266,2.25121
3309.43297,2.25151
3308.40327,2.25189
3307.37358,2.25233
3306.34389,2.25282
3305.31420,2.25333
3304.28450,2.25385
3303.25481,2.25437
3302.22512,2.25485
3301.19542,2.25530
3300.16573,2.25569
3299.13604,2.25602
3298.10634,2.25629
3297.07665,2.25650
3296.04696,2.25665
3295.01727,2.25674
3293.98757,2.25678
3292.95788,2.25678
3291.92819,2.25673
3290.89849,2.25665
3289.86880,2.25654
3288.83911,2.25640
3287.80942,2.25623
3286.77972,2.25605
3285.75003,2.25586
3284.72034,2.25565
3283.69064,2.25543
3282.66095,2.25522
3281.63126,2.25500
3280.60157,2.25479
3279.57187,2.25458
3278.54218,2.25437
3277.51249,2.25418
3276.48279,2.25400
3275.45310,2.25384
3274.42341,2.25370
3273.39372,2.25358
3272.36402,2.25349
3271.33433,2.25341
3270.30464,2.25336
3269.27494,2.25333
3268.24525,2.25332
3267.21556,2.25332
3266.18586,2.25334
3265.15617,2.25338
3264.12648,2.25342
3263.09679,2.25348
3262.06709,2.25356
3261.03740,2.25364
3260.00771,2.25374
3258.97801,2.25384
3257.94832,2.25396
3256.91863,2.25410
3255.88894,2.25424
3254.85924,2.25439
3253.82955,2.25455
3252.79986,2.25471
3251.77016,2.25488
3250.74047,2.25506
3249.71078,2.25523
3248.68109,2.25540
3247.65139,2.25557
3246.62170,2.25573
3245.59201,2.25588
3244.56231,2.25602
3243.53262,2.25615
3242.50293,2.25627
3241.47324,2.25639
3240.44354,2.25649
3239.41385,2.25658
3238.38416,2.25666
3237.35446,2.25673
3236.32477,2.25678
3235.29508,2.25682
3234.26539,2.25684
3233.23569,2.25685
3232.20600,2.25685
3231.17631,2.25684
3230.14661,2.25682
3229.11692,2.25679
3228.08723,2.25677
3227.05753,2.25674
3226.02784,2.25672
3224.99815,2.25671
3223.96846,2.25670
3222.93876,2.25670
3221.90907,2.25671
3220.87938,2.25674
3219.84968,2.25678
3218.81999,2.25683
3217.79030,2.25689
3216.76061,2.25695
3215.73091,2.25700
3214.70122,2.25703
3213.67153,2.25705
3212.64183,2.25704
3211.61214,2.25700
3210.58245,2.25694
3209.55276,2.25685
3208.52306,2.25674
3207.49337,2.25661
3206.46368,2.25647
3205.43398,2.25631
3204.40429,2.25614
3203.37460,2.25598
3202.34491,2.25582
3201.31521,2.25567
3200.28552,2.25553
3199.25583,2.25541
3198.22613,2.25532
3197.19644,2.25526
3196.16675,2.25522
3195.13706,2.25521
3194.10736,2.25523
3193.07767,2.25527
3192.04798,2.25533
3191.01828,2.25542
3189.98859,2.25552
3188.95890,2.25564
3187.92920,2.25579
3186.89951,2.25596
3185.86982,2.25615
3184.84013,2.25636
3183.81043,2.25659
3182.78074,2.25683
3181.75105,2.25709
3180.72135,2.25734
3179.69166,2.25759
3178.66197,2.25784
3177.63228,2.25806
3176.60258,2.25826
3175.57289,2.25843
3174.54320,2.25857
3173.51350,2.25868
3172.48381,2.25875
3171.45412,2.25879
3170.42443,2.25880
3169.39473,2.25878
3168.36504,2.25874
3167.33535,2.25869
3166.30565,2.25865
3165.27596,2.25862
3164.24627,2.25861
3163.21658,2.25864
3162.18688,2.25870
3161.15719,2.25881
3160.12750,2.25897
3159.09780,2.25917
3158.06811,2.25942
3157.03842,2.25970
3156.00873,2.26001
3154.97903,2.26034
3153.94934,2.26068
3152.91965,2.26102
3151.88995,2.26135
3150.86026,2.26165
3149.83057,2.26193
3148.80087,2.26217
3147.77118,2.26237
3146.74149,2.26253
3145.71180,2.26264
3144.68210,2.26269
3143.65241,2.26270
3142.62272,2.26266
3141.59302,2.26259
3140.56333,2.26249
3139.53364,2.26236
3138.50395,2.26222
3137.47425,2.26207
3136.44456,2.26191
3135.41487,2.26176
3134.38517,2.26162
3133.35548,2.26150
3132.32579,2.26139
3131.29610,2.26131
3130.26640,2.26125
3129.23671,2.26121
3128.20702,2.26119
3127.17732,2.26118
3126.14763,2.26118
3125.11794,2.26118
3124.08825,2.26118
3123.05855,2.26117
3122.02886,2.26114
3120.99917,2.26108
3119.96947,2.26098
3118.93978,2.26085
3117.91009,2.26069
3116.88040,2.26049
3115.85070,2.26026
3114.82101,2.25999
3113.79132,2.25971
3112.76162,2.25942
3111.73193,2.25913
3110.70224,2.25884
3109.67254,2.25857
3108.64285,2.25834
3107.61316,2.25814
3106.58347,2.25800
3105.55377,2.25791
3104.52408,2.25788
3103.49439,2.25793
3102.46469,2.25804
3101.43500,2.25823
3100.40531,2.25849
3099.37562,2.25882
3098.34592,2.25921
3097.31623,2.25966
3096.28654,2.26017
3095.25684,2.26071
3094.22715,2.26130
3093.19746,2.26190
3092.16777,2.26253
3091.13807,2.26315
3090.10838,2.26376
3089.07869,2.26435
3088.04899,2.26491
3087.01930,2.26542
3085.98961,2.26588
3084.95992,2.26628
3083.93022,2.26662
3082.90053,2.26690
3081.87084,2.26712
3080.84114,2.26729
3079.81145,2.26741
3078.78176,2.26749
3077.75207,2.26755
3076.72237,2.26760
3075.69268,2.26765
3074.66299,2.26771
3073.63329,2.26780
3072.60360,2.26794
3071.57391,2.26811
3070.54421,2.26834
3069.51452,2.26862
3068.48483,2.26896
3067.45514,2.26934
3066.42544,2.26976
3065.39575,2.27020
3064.36606,2.27066
3063.33636,2.27113
3062.30667,2.27159
3061.27698,2.27203
3060.24729,2.27244
3059.21759,2.27282
3058.18790,2.27315
3057.15821,2.27344
3056.12851,2.27368
3055.09882,2.27387
3054.06913,2.27402
3053.03944,2.27414
3052.00974,2.27422
3050.98005,2.27427
3049.95036,2.27430
3048.92066,2.27432
3047.89097,2.27434
3046.86128,2.27436
3045.83159,2.27438
3044.80189,2.27443
3043.77220,2.27449
3042.74251,2.27458
3041.71281,2.27470
3040.68312,2.27485
3039.65343,2.27502
3038.62374,2.27524
3037.59404,2.27548
3036.56435,2.27577
3035.53466,2.27610
3034.50496,2.27646
3033.47527,2.27686
3032.44558,2.27730
3031.41588,2.27776
3030.38619,2.27826
3029.35650,2.27877
3028.32681,2.27929
3027.29711,2.27982
3026.26742,2.28035
3025.23773,2.28086
3024.20803,2.28136
3023.17834,2.28183
3022.14865,2.28227
3021.11896,2.28269
3020.08926,2.28306
3019.05957,2.28339
3018.02988,2.28368
3017.00018,2.28391
3015.97049,2.28411
3014.94080,2.28426
3013.91111,2.28438
3012.88141,2.28448
3011.85172,2.28456
3010.82203,2.28464
3009.79233,2.28472
3008.76264,2.28482
3007.73295,2.28495
3006.70326,2.28511
3005.67356,2.28533
3004.64387,2.28559
3003.61418,2.28592
3002.58448,2.28632
3001.55479,2.28679
3000.52510,2.28735
2999.49541,2.28799
2998.46571,2.28871
2997.43602,2.28950
2996.40633,2.29037
2995.37663,2.29129
2994.34694,2.29225
2993.31725,2.29325
2992.28755,2.29426
2991.25786,2.29527
2990.22817,2.29627
2989.19848,2.29723
2988.16878,2.29814
2987.13909,2.29898
2986.10940,2.29974
2985.07970,2.30040
2984.05001,2.30095
2983.02032,2.30138
2981.99063,2.30168
2980.96093,2.30185
2979.93124,2.30189
2978.90155,2.30180
2977.87185,2.30159
2976.84216,2.30127
2975.81247,2.30085
2974.78278,2.30036
2973.75308,2.29980
2972.72339,2.29919
2971.69370,2.29855
2970.66400,2.29789
2969.63431,2.29723
2968.60462,2.29659
2967.57493,2.29597
2966.54523,2.29538
2965.51554,2.29483
2964.48585,2.29431
2963.45615,2.29383
2962.42646,2.29336
2961.39677,2.29290
2960.36707,2.29244
2959.33738,2.29196
2958.30769,2.29144
2957.27800,2.29088
2956.24830,2.29026
2955.21861,2.28957
2954.18892,2.28880
2953.15922,2.28795
2952.12953,2.28701
2951.09984,2.28600
2950.07015,2.28491
2949.04045,2.28376
2948.01076,2.28255
2946.98107,2.28131
2945.95137,2.28005
2944.92168,2.27879
2943.89199,2.27754
2942.86230,2.27630
2941.83260,2.27510
2940.80291,2.27393
2939.77322,2.27279
2938.74352,2.27170
2937.71383,2.27063
2936.68414,2.26958
2935.65445,2.26855
2934.62475,2.26752
2933.59506,2.26648
2932.56537,2.26541
2931.53567,2.26431
2930.50598,2.26317
2929.47629,2.26198
2928.44660,2.26073
2927.41690,2.25944
2926.38721,2.25810
2925.35752,2.25672
2924.32782,2.25531
2923.29813,2.25390
2922.26844,2.25250
2921.23874,2.25112
2920.20905,2.24980
2919.17936,2.24854
2918.14967,2.24737
2917.11997,2.24630
2916.09028,2.24535
2915.06059,2.24452
2914.03089,2.24382
2913.00120,2.24326
2911.97151,2.24284
2910.94182,2.24254
2909.91212,2.24238
2908.88243,2.24233
2907.85274,2.24239
2906.82304,2.24256
2905.79335,2.24281
2904.76366,2.24313
2903.73397,2.24353
2902.70427,2.24398
2901.67458,2.24447
2900.64489,2.24501
2899.61519,2.24559
2898.58550,2.24618
2897.55581,2.24680
2896.52612,2.24743
2895.49642,2.24807
2894.46673,2.24870
2893.43704,2.24932
2892.40734,2.24992
2891.37765,2.25050
2890.34796,2.25103
2889.31827,2.25153
2888.28857,2.25197
2887.25888,2.25235
2886.22919,2.25266
2885.19949,2.25290
2884.16980,2.25308
2883.14011,2.25319
2882.11041,2.25323
2881.08072,2.25321
2880.05103,2.25313
2879.02134,2.25301
2877.99164,2.25285
2876.96195,2.25265
2875.93226,2.25243
2874.90256,2.25219
2873.87287,2.25193
2872.84318,2.25167
2871.81349,2.25139
2870.78379,2.25110
2869.75410,2.25079
2868.72441,2.25045
2867.69471,2.25009
2866.66502,2.24969
2865.63533,2.24924
2864.60564,2.24873
2863.57594,2.24816
2862.54625,2.24753
2861.51656,2.24683
2860.48686,2.24606
2859.45717,2.24523
2858.42748,2.24435
2857.39779,2.24342
2856.36809,2.24248
2855.33840,2.24152
2854.30871,2.24057
2853.27901,2.23965
2852.24932,2.23877
2851.21963,2.23795
2850.18994,2.23721
2849.16024,2.23655
2848.13055,2.23600
2847.10086,2.23556
2846.07116,2.23522
2845.04147,2.23499
2844.01178,2.23487
2842.98208,2.23484
2841.95239,2.23489
2840.92270,2.23502
2839.89301,2.23521
2838.86331,2.23545
2837.83362,2.23572
2836.80393,2.23602
2835.77423,2.23635
2834.74454,2.23669
2833.71485,2.23704
2832.68516,2.23740
2831.65546,2.23778
2830.62577,2.23816
2829.59608,2.23856
2828.56638,2.23896
2827.53669,2.23939
2826.50700,2.23982
2825.47731,2.24027
2824.44761,2.24073
2823.41792,2.24120
2822.38823,2.24168
2821.35853,2.24214
2820.32884,2.24259
2819.29915,2.24302
2818.26946,2.24341
2817.23976,2.24375
2816.21007,2.24405
2815.18038,2.24428
2814.15068,2.24445
2813.12099,2.24456
2812.09130,2.24460
2811.06161,2.24459
2810.03191,2.24452
2809.00222,2.24442
2807.97253,2.24428
2806.94283,2.24412
2805.91314,2.24395
2804.88345,2.24379
2803.85375,2.24365
2802.82406,2.24354
2801.79437,2.24348
2800.76468,2.24346
2799.73498,2.24351
2798.70529,2.24363
2797.67560,2.24381
2796.64590,2.24405
2795.61621,2.24436
2794.58652,2.24471
2793.55683,2.24511
2792.52713,2.24554
2791.49744,2.24598
2790.46775,2.24642
2789.43805,2.24684
2788.40836,2.24723
2787.37867,2.24758
2786.34898,2.24788
2785.31928,2.24811
2784.28959,2.24827
2783.25990,2.24836
2782.23020,2.24836
2781.20051,2.24829
2780.17082,2.24814
2779.14113,2.24793
2778.11143,2.24767
2777.08174,2.24737
2776.05205,2.24705
2775.02235,2.24672
2773.99266,2.24640
2772.96297,2.24610
2771.93328,2.24583
2770.90358,2.24561
2769.87389,2.24544
2768.84420,2.24532
2767.81450,2.24527
2766.78481,2.24528
2765.75512,2.24535
2764.72542,2.24549
2763.69573,2.24568
2762.66604,2.24593
2761.63635,2.24622
2760.60665,2.24655
2759.57696,2.24691
2758.54727,2.24730
2757.51757,2.24770
2756.48788,2.24811
2755.45819,2.24853
2754.42850,2.24894
2753.39880,2.24935
2752.36911,2.24976
2751.33942,2.25015
2750.30972,2.25053
2749.28003,2.25088
2748.25034,2.25121
2747.22065,2.25151
2746.19095,2.25178
2745.16126,2.25200
2744.13157,2.25218
2743.10187,2.25232
2742.07218,2.25242
2741.04249,2.25247
2740.01280,2.25248
2738.98310,2.25246
2737.95341,2.25240
2736.92372,2.25232
2735.89402,2.25222
2734.86433,2.25210
2733.83464,2.25198
2732.80495,2.25186
2731.77525,2.25175
2730.74556,2.25165
2729.71587,2.25158
2728.68617,2.25154
2727.65648,2.25154
2726.62679,2.25156
2725.59709,2.25162
2724.56740,2.25172
2723.53771,2.25185
2722.50802,2.25202
2721.47832,2.25221
2720.44863,2.25244
2719.41894,2.25269
2718.38924,2.25297
2717.35955,2.25328
2716.32986,2.25360
2715.30017,2.25395
2714.27047,2.25430
2713.24078,2.25467
2712.21109,2.25503
2711.18139,2.25539
2710.15170,2.25573
2709.12201,2.25605
2708.09232,2.25634
2707.06262,2.25659
2706.03293,2.25679
2705.00324,2.25694
2703.97354,2.25704
2702.94385,2.25707
2701.91416,2.25704
2700.88447,2.25695
2699.85477,2.25681
2698.82508,2.25663
2697.79539,2.25642
2696.76569,2.25620
2695.73600,2.25597
2694.70631,2.25577
2693.67662,2.25560
2692.64692,2.25547
2691.61723,2.25541
2690.58754,2.25541
2689.55784,2.25548
2688.52815,2.25562
2687.49846,2.25583
2686.46876,2.25611
2685.43907,2.25645
2684.40938,2.25683
2683.37969,2.25724
2682.34999,2.25766
2681.32030,2.25807
2680.29061,2.25847
2679.26091,2.25884
2678.23122,2.25916
2677.20153,2.25942
2676.17184,2.25962
2675.14214,2.25975
2674.11245,2.25981
2673.08276,2.25980
2672.05306,2.25972
2671.02337,2.25959
2669.99368,2.25939
2668.96399,2.25915
2667.93429,2.25886
2666.90460,2.25854
2665.87491,2.25819
2664.84521,2.25783
2663.81552,2.25747
2662.78583,2.25711
2661.75614,2.25678
2660.72644,2.25647
2659.69675,2.25620
2658.66706,2.25597
2657.63736,2.25579
2656.60767,2.25567
2655.57798,2.25561
2654.54828,2.25562
2653.51859,2.25568
2652.48890,2.25580
2651.45921,2.25597
2650.42951,2.25619
2649.39982,2.25644
2648.37013,2.25672
2647.34043,2.25701
2646.31074,2.25731
2645.28105,2.25759
2644.25136,2.25785
2643.22166,2.25808
2642.19197,2.25827
2641.16228,2.25843
2640.13258,2.25854
2639.10289,2.25862
2638.07320,2.25866
2637.04351,2.25866
2636.01381,2.25863
2634.98412,2.25859
2633.95443,2.25853
2632.92473,2.25846
2631.89504,2.25839
2630.86535,2.25832
2629.83566,2.25825
2628.80596,2.25819
2627.77627,2.25815
2626.74658,2.25812
2625.71688,2.25810
2624.68719,2.25810
2623.65750,2.25812
2622.62781,2.25816
2621.59811,2.25821
2620.56842,2.25828
2619.53873,2.25837
2618.50903,2.25847
2617.47934,2.25860
2616.44965,2.25875
2615.41995,2.25893
2614.39026,2.25912
2613.36057,2.25934
2612.33088,2.25957
2611.30118,2.25982
2610.27149,2.26007
2609.24180,2.26033
2608.21210,2.26058
2607.18241,2.26083
2606.15272,2.26105
2605.12303,2.26126
2604.09333,2.26144
2603.06364,2.26160
2602.03395,2.26171
2601.00425,2.26180
2599.97456,2.26184
2598.94487,2.26185
2597.91518,2.26182
2596.88548,2.26175
2595.85579,2.26165
2594.82610,2.26153
2593.79640,2.26138
2592.76671,2.26122
2591.73702,2.26104
2590.70733,2.26085
2589.67763,2.26067
2588.64794,2.26048
2587.61825,2.26031
2586.58855,2.26015
2585.55886,2.26001
2584.52917,2.25988
2583.49948,2.25978
2582.46978,2.25971
2581.44009,2.25967
2580.41040,2.25967
2579.38070,2.25969
2578.35101,2.25976
2577.32132,2.25985
2576.29162,2.25999
2575.26193,2.26015
2574.23224,2.26034
2573.20255,2.26055
2572.17285,2.26078
2571.14316,2.26102
2570.11347,2.26127
2569.08377,2.26153
2568.05408,2.26178
2567.02439,2.26203
2565.99470,2.26227
2564.96500,2.26250
2563.93531,2.26270
2562.90562,2.26289
2561.87592,2.26305
2560.84623,2.26318
2559.81654,2.26328
2558.78685,2.26336
2557.75715,2.26340
2556.72746,2.26343
2555.69777,2.26342
2554.66807,2.26339
2553.63838,2.26334
2552.60869,2.26327
2551.57900,2.26317
2550.54930,2.26306
2549.51961,2.26292
2548.48992,2.26277
2547.46022,2.26261
2546.43053,2.26244
2545.40084,2.26227
2544.37115,2.26211
2543.34145,2.26196
2542.31176,2.26182
2541.28207,2.26170
2540.25237,2.26159
2539.22268,2.26149
2538.19299,2.26142
2537.16329,2.26137
2536.13360,2.26134
2535.10391,2.26132
2534.07422,2.26132
2533.04452,2.26132
2532.01483,2.26133
2530.98514,2.26135
2529.95544,2.26135
2528.92575,2.26136
2527.89606,2.26135
2526.86637,2.26133
2525.83667,2.26130
2524.80698,2.26126
2523.77729,2.26122
2522.74759,2.26118
2521.71790,2.26115
2520.68821,2.26113
2519.65852,2.26114
2518.62882,2.26117
2517.59913,2.26123
2516.56944,2.26132
2515.53974,2.26144
2514.51005,2.26159
2513.48036,2.26178
2512.45067,2.26198
2511.42097,2.26221
2510.39128,2.26244
2509.36159,2.26267
2508.33189,2.26289
2507.30220,2.26308
2506.27251,2.26324
2505.24282,2.26337
2504.21312,2.26344
2503.18343,2.26346
2502.15374,2.26343
2501.12404,2.26335
2500.09435,2.26321
2499.06466,2.26303
2498.03496,2.26281
2497.00527,2.26256
2495.97558,2.26230
2494.94589,2.26202
2493.91619,2.26175
2492.88650,2.26150
2491.85681,2.26126
2490.82711,2.26105
2489.79742,2.26088
2488.76773,2.26074
2487.73804,2.26063
2486.70834,2.26056
2485.67865,2.26052
2484.64896,2.26049
2483.61926,2.26049
2482.58957,2.26048
2481.55988,2.26046
2480.53019,2.26043
2479.50049,2.26037
2478.47080,2.26027
2477.44111,2.26012
2476.41141,2.25993
2475.38172,2.25969
2474.35203,2.25940
2473.32234,2.25907
2472.29264,2.25870
2471.26295,2.25831
2470.23326,2.25790
2469.20356,2.25748
2468.17387,2.25708
2467.14418,2.25670
2466.11449,2.25636
2465.08479,2.25606
2464.05510,2.25582
2463.02541,2.25564
2461.99571,2.25553
2460.96602,2.25549
2459.93633,2.25552
2458.90663,2.25560
2457.87694,2.25574
2456.84725,2.25592
2455.81756,2.25613
2454.78786,2.25635
2453.75817,2.25657
2452.72848,2.25679
2451.69878,2.25699
2450.66909,2.25716
2449.63940,2.25730
2448.60971,2.25740
2447.58001,2.25746
2446.55032,2.25749
2445.52063,2.25749
2444.49093,2.25746
2443.46124,2.25741
2442.43155,2.25736
2441.40186,2.25730
2440.37216,2.25724
2439.34247,2.25720
2438.31278,2.25717
2437.28308,2.25716
2436.25339,2.25717
2435.22370,2.25718
2434.19401,2.25721
2433.16431,2.25724
2432.13462,2.25726
2431.10493,2.25727
2430.07523,2.25726
2429.04554,2.25722
2428.01585,2.25714
2426.98616,2.25702
2425.95646,2.25686
2424.92677,2.25665
2423.89708,2.25639
2422.86738,2.25610
2421.83769,2.25578
2420.80800,2.25542
2419.77830,2.25505
2418.74861,2.25466
2417.71892,2.25427
2416.68923,2.25389
2415.65953,2.25352
2414.62984,2.25317
2413.60015,2.25284
2412.57045,2.25254
2411.54076,2.25228
2410.51107,2.25206
2409.48138,2.25187
2408.45168,2.25172
2407.42199,2.25161
2406.39230,2.25152
2405.36260,2.25147
2404.33291,2.25143
2403.30322,2.25142
2402.27353,2.25143
2401.24383,2.25145
2400.21414,2.25148
2399.18445,2.25152
2398.15475,2.25158
2397.12506,2.25164
2396.09537,2.25171
2395.06568,2.25180
2394.03598,2.25189
2393.00629,2.25199
2391.97660,2.25211
2390.94690,2.25225
2389.91721,2.25242
2388.88752,2.25261
2387.85782,2.25285
2386.82813,2.25314
2385.79844,2.25349
2384.76875,2.25392
2383.73905,2.25441
2382.70936,2.25499
2381.67967,2.25566
2380.64997,2.25643
2379.62028,2.25729
2378.59059,2.25826
2377.56090,2.25932
2376.53120,2.26048
2375.50151,2.26173
2374.47182,2.26304
2373.44212,2.26440
2372.41243,2.26578
2371.38274,2.26714
2370.35305,2.26846
2369.32335,2.26969
2368.29366,2.27080
2367.26397,2.27175
2366.23427,2.27251
2365.20458,2.27306
2364.17489,2.27339
2363.14520,2.27347
2362.11550,2.27331
2361.08581,2.27292
2360.05612,2.27231
2359.02642,2.27151
2357.99673,2.27056
2356.96704,2.26949
2355.93735,2.26837
2354.90765,2.26725
2353.87796,2.26617
2352.84827,2.26520
2351.81857,2.26438
2350.78888,2.26374
2349.75919,2.26332
2348.72949,2.26312
2347.69980,2.26316
2346.67011,2.26342
2345.64042,2.26389
2344.61072,2.26454
2343.58103,2.26532
2342.55134,2.26621
2341.52164,2.26717
2340.49195,2.26813
2339.46226,2.26907
2338.43257,2.26993
2337.40287,2.27067
2336.37318,2.27128
2335.34349,2.27171
2334.31379,2.27196
2333.28410,2.27202
2332.25441,2.27189
2331.22472,2.27159
2330.19502,2.27112
2329.16533,2.27050
2328.13564,2.26975
2327.10594,2.26891
2326.07625,2.26798
2325.04656,2.26699
2324.01687,2.26596
2322.98717,2.26491
2321.95748,2.26386
2320.92779,2.26282
2319.89809,2.26181
2318.86840,2.26083
2317.83871,2.25991
2316.80902,2.25904
2315.77932,2.25823
2314.74963,2.25749
2313.71994,2.25681
2312.69024,2.25620
2311.66055,2.25566
2310.63086,2.25519
2309.60116,2.25479
2308.57147,2.25446
2307.54178,2.25419
2306.51209,2.25398
2305.48239,2.25382
2304.45270,2.25370
2303.42301,2.25362
2302.39331,2.25357
2301.36362,2.25354
2300.33393,2.25352
2299.30424,2.25351
2298.27454,2.25349
2297.24485,2.25347
2296.21516,2.25343
2295.18546,2.25338
2294.15577,2.25331
2293.12608,2.25324
2292.09639,2.25315
2291.06669,2.25305
2290.03700,2.25294
2289.00731,2.25284
2287.97761,2.25274
2286.94792,2.25265
2285.91823,2.25257
2284.88854,2.25250
2283.85884,2.25246
2282.82915,2.25245
2281.79946,2.25246
2280.76976,2.25250
2279.74007,2.25257
2278.71038,2.25268
2277.68069,2.25282
2276.65099,2.25299
2275.62130,2.25320
2274.59161,2.25344
2273.56191,2.25371
2272.53222,2.25401
2271.50253,2.25434
2270.47283,2.25468
2269.44314,2.25503
2268.41345,2.25540
2267.38376,2.25576
2266.35406,2.25611
2265.32437,2.25645
2264.29468,2.25675
2263.26498,2.25702
2262.23529,2.25724
2261.20560,2.25741
2260.17591,2.25753
2259.14621,2.25758
2258.11652,2.25757
2257.08683,2.25751
2256.05713,2.25739
2255.02744,2.25722
2253.99775,2.25702
2252.96806,2.25679
2251.93836,2.25654
2250.90867,2.25629
2249.87898,2.25606
2248.84928,2.25584
2247.81959,2.25565
2246.78990,2.25550
2245.76021,2.25540
2244.73051,2.25535
2243.70082,2.25536
2242.67113,2.25542
2241.64143,2.25553
2240.61174,2.25568
2239.58205,2.25587
2238.55236,2.25609
2237.52266,2.25633
2236.49297,2.25658
2235.46328,2.25684
2234.43358,2.25710
2233.40389,2.25735
2232.37420,2.25759
2231.34450,2.25782
2230.31481,2.25803
2229.28512,2.25824
2228.25543,2.25843
2227.22573,2.25861
2226.19604,2.25878
2225.16635,2.25894
2224.13665,2.25909
2223.10696,2.25924
2222.07727,2.25938
2221.04758,2.25951
2220.01788,2.25965
2218.98819,2.25977
2217.95850,2.25989
2216.92880,2.26000
2215.89911,2.26009
2214.86942,2.26018
2213.83973,2.26025
2212.81003,2.26030
2211.78034,2.26034
2210.75065,2.26038
2209.72095,2.26040
2208.69126,2.26042
2207.66157,2.26044
2206.63188,2.26045
2205.60218,2.26046
2204.57249,2.26047
2203.54280,2.26048
2202.51310,2.26048
2201.48341,2.26048
2200.45372,2.26048
2199.42403,2.26047
2198.39433,2.26046
2197.36464,2.26044
2196.33495,2.26041
2195.30525,2.26038
2194.27556,2.26035
2193.24587,2.26032
2192.21617,2.26028
2191.18648,2.26026
2190.15679,2.26024
2189.12710,2.26024
2188.09740,2.26026
2187.06771,2.26031
2186.03802,2.26039
2185.00832,2.26051
2183.97863,2.26066
2182.94894,2.26085
2181.91925,2.26108
2180.88955,2.26133
2179.85986,2.26161
2178.83017,2.26191
2177.80047,2.26223
2176.77078,2.26256
2175.74109,2.26289
2174.71140,2.26321
2173.68170,2.26352
2172.65201,2.26381
2171.62232,2.26406
2170.59262,2.26428
2169.56293,2.26446
2168.53324,2.26459
2167.50355,2.26468
2166.47385,2.26473
2165.44416,2.26474
2164.41447,2.26471
2163.38477,2.26466
2162.35508,2.26458
2161.32539,2.26450
2160.29570,2.26442
2159.26600,2.26434
2158.23631,2.26428
2157.20662,2.26425
2156.17692,2.26425
2155.14723,2.26430
2154.11754,2.26441
2153.08784,2.26456
2152.05815,2.26477
2151.02846,2.26503
2149.99877,2.26533
2148.96907,2.26567
2147.93938,2.26602
2146.90969,2.26639
2145.87999,2.26675
2144.85030,2.26709
2143.82061,2.26742
2142.79092,2.26770
2141.76122,2.26795
2140.73153,2.26814
2139.70184,2.26829
2138.67214,2.26839
2137.64245,2.26844
2136.61276,2.26845
2135.58307,2.26842
2134.55337,2.26838
2133.52368,2.26832
2132.49399,2.26828
2131.46429,2.26825
2130.43460,2.26825
2129.40491,2.26830
2128.37522,2.26839
2127.34552,2.26854
2126.31583,2.26873
2125.28614,2.26898
2124.25644,2.26927
2123.22675,2.26961
2122.19706,2.26998
2121.16737,2.27038
2120.13767,2.27080
2119.10798,2.27123
2118.07829,2.27167
2117.04859,2.27210
2116.01890,2.27252
2114.98921,2.27293
2113.95951,2.27330
2112.92982,2.27365
2111.90013,2.27397
2110.87044,2.27424
2109.84074,2.27448
2108.81105,2.27469
2107.78136,2.27485
2106.75166,2.27497
2105.72197,2.27506
2104.69228,2.27510
2103.66259,2.27509
2102.63289,2.27505
2101.60320,2.27496
2100.57351,2.27482
2099.54381,2.27465
2098.51412,2.27445
2097.48443,2.27423
2096.45474,2.27399
2095.42504,2.27375
2094.39535,2.27350
2093.36566,2.27327
2092.33596,2.27306
2091.30627,2.27288
2090.27658,2.27273
2089.24689,2.27263
2088.21719,2.27258
2087.18750,2.27257
2086.15781,2.27262
2085.12811,2.27272
2084.09842,2.27286
2083.06873,2.27304
2082.03903,2.27324
2081.00934,2.27347
2079.97965,2.27371
2078.94996,2.27394
2077.92026,2.27416
2076.89057,2.27437
2075.86088,2.27454
2074.83118,2.27469
2073.80149,2.27480
2072.77180,2.27487
2071.74211,2.27491
2070.71241,2.27491
2069.68272,2.27488
2068.65303,2.27483
2067.62333,2.27476
2066.59364,2.27467
2065.56395,2.27458
2064.53426,2.27449
2063.50456,2.27442
2062.47487,2.27435
2061.44518,2.27431
2060.41548,2.27430
2059.38579,2.27431
2058.35610,2.27435
2057.32641,2.27443
2056.29671,2.27453
2055.26702,2.27467
2054.23733,2.27484
2053.20763,2.27504
2052.17794,2.27527
2051.14825,2.27552
2050.11856,2.27579
2049.08886,2.27608
2048.05917,2.27638
2047.02948,2.27668
2045.99978,2.27699
2044.97009,2.27730
2043.94040,2.27761
2042.91070,2.27792
2041.88101,2.27822
2040.85132,2.27851
2039.82163,2.27878
2038.79193,2.27905
2037.76224,2.27929
2036.73255,2.27952
2035.70285,2.27973
2034.67316,2.27992
2033.64347,2.28010
2032.61378,2.28026
2031.58408,2.28042
2030.55439,2.28057
2029.52470,2.28072
2028.49500,2.28087
2027.46531,2.28102
2026.43562,2.28117
2025.40593,2.28134
2024.37623,2.28152
2023.34654,2.28171
2022.31685,2.28191
2021.28715,2.28214
2020.25746,2.28238
2019.22777,2.28265
2018.19808,2.28292
2017.16838,2.28322
2016.13869,2.28352
2015.10900,2.28382
2014.07930,2.28412
2013.04961,2.28442
2012.01992,2.28471
2010.99023,2.28499
2009.96053,2.28525
2008.93084,2.28549
2007.90115,2.28571
2006.87145,2.28591
2005.84176,2.28608
2004.81207,2.28624
2003.78237,2.28637
2002.75268,2.28649
2001.72299,2.28660
2000.69330,2.28670
1999.66360,2.28679
1998.63391,2.28689
1997.60422,2.28700
1996.57452,2.28711
1995.54483,2.28725
1994.51514,2.28740
1993.48545,2.28756
1992.45575,2.28775
1991.42606,2.28795
1990.39637,2.28817
1989.36667,2.28841
1988.33698,2.28865
1987.30729,2.28890
1986.27760,2.28916
1985.24790,2.28942
1984.21821,2.28967
1983.18852,2.28992
1982.15882,2.29016
1981.12913,2.29038
1980.09944,2.29059
1979.06975,2.29077
1978.04005,2.29093
1977.01036,2.29106
1975.98067,2.29117
1974.95097,2.29125
1973.92128,2.29130
1972.89159,2.29133
1971.86190,2.29133
1970.83220,2.29130
1969.80251,2.29125
1968.77282,2.29118
1967.74312,2.29108
1966.71343,2.29097
1965.68374,2.29085
1964.65404,2.29071
1963.62435,2.29058
1962.59466,2.29044
1961.56497,2.29031
1960.53527,2.29020
1959.50558,2.29009
1958.47589,2.29000
1957.44619,2.28993
1956.41650,2.28988
1955.38681,2.28985
1954.35712,2.28984
1953.32742,2.28985
1952.29773,2.28990
1951.26804,2.28997
1950.23834,2.29008
1949.20865,2.29022
1948.17896,2.29039
1947.14927,2.29060
1946.11957,2.29084
1945.08988,2.29113
1944.06019,2.29145
1943.03049,2.29181
1942.00080,2.29221
1940.97111,2.29264
1939.94142,2.29311
1938.91172,2.29360
1937.88203,2.29411
1936.85234,2.29463
1935.82264,2.29514
1934.79295,2.29564
1933.76326,2.29611
1932.73357,2.29655
1931.70387,2.29694
1930.67418,2.29728
1929.64449,2.29756
1928.61479,2.29780
1927.58510,2.29798
1926.55541,2.29811
1925.52571,2.29821
1924.49602,2.29827
1923.46633,2.29831
1922.43664,2.29834
1921.40694,2.29839
1920.37725,2.29845
1919.34756,2.29855
1918.31786,2.29868
1917.28817,2.29887
1916.25848,2.29911
1915.22879,2.29940
1914.19909,2.29975
1913.16940,2.30013
1912.13971,2.30055
1911.11001,2.30099
1910.08032,2.30145
1909.05063,2.30190
1908.02094,2.30235
1906.99124,2.30278
1905.96155,2.30318
1904.93186,2.30356
1903.90216,2.30391
1902.87247,2.30423
1901.84278,2.30453
1900.81309,2.30482
1899.78339,2.30509
1898.75370,2.30536
1897.72401,2.30563
1896.69431,2.30591
1895.66462,2.30621
1894.63493,2.30654
1893.60524,2.30688
1892.57554,2.30725
1891.54585,2.30764
1890.51616,2.30805
1889.48646,2.30845
1888.45677,2.30885
1887.42708,2.30924
1886.39738,2.30960
1885.36769,2.30992
1884.33800,2.31021
1883.30831,2.31045
1882.27861,2.31065
1881.24892,2.31080
1880.21923,2.31091
1879.18953,2.31100
1878.15984,2.31106
1877.13015,2.31111
1876.10046,2.31118
1875.07076,2.31126
1874.04107,2.31139
1873.01138,2.31156
1871.98168,2.31180
1870.95199,2.31212
1869.92230,2.31251
1868.89261,2.31299
1867.86291,2.31355
1866.83322,2.31418
1865.80353,2.31488
1864.77383,2.31564
1863.74414,2.31644
1862.71445,2.31726
1861.68476,2.31808
1860.65506,2.31889
1859.62537,2.31967
1858.59568,2.32042
1857.56598,2.32111
1856.53629,2.32174
1855.50660,2.32231
1854.47691,2.32282
1853.44721,2.32328
1852.41752,2.32369
1851.38783,2.32406
1850.35813,2.32442
1849.32844,2.32476
1848.29875,2.32511
1847.26905,2.32549
1846.23936,2.32589
1845.20967,2.32633
1844.17998,2.32682
1843.15028,2.32737
1842.12059,2.32797
1841.09090,2.32864
1840.06120,2.32935
1839.03151,2.33011
1838.00182,2.33091
1836.97213,2.33174
1835.94243,2.33260
1834.91274,2.33348
1833.88305,2.33437
1832.85335,2.33528
1831.82366,2.33620
1830.79397,2.33713
1829.76428,2.33806
1828.73458,2.33901
1827.70489,2.33998
1826.67520,2.34097
1825.64550,2.34199
1824.61581,2.34305
1823.58612,2.34415
1822.55643,2.34531
1821.52673,2.34652
1820.49704,2.34780
1819.46735,2.34914
1818.43765,2.35056
1817.40796,2.35206
1816.37827,2.35363
1815.34858,2.35528
1814.31888,2.35701
1813.28919,2.35882
1812.25950,2.36070
1811.22980,2.36263
1810.20011,2.36462
1809.17042,2.36665
1808.14072,2.36870
1807.11103,2.37075
1806.08134,2.37279
1805.05165,2.37479
1804.02195,2.37674
1802.99226,2.37862
1801.96257,2.38040
1800.93287,2.38209
1799.90318,2.38367
1798.87349,2.38513
1797.84380,2.38646
1796.81410,2.38766
1795.78441,2.38873
1794.75472,2.38969
1793.72502,2.39054
1792.69533,2.39129
1791.66564,2.39196
1790.63595,2.39256
1789.60625,2.39312
1788.57656,2.39364
1787.54687,2.39415
1786.51717,2.39464
1785.48748,2.39514
1784.45779,2.39564
1783.42810,2.39615
1782.39840,2.39668
1781.36871,2.39723
1780.33902,2.39779
1779.30932,2.39838
1778.27963,2.39900
1777.24994,2.39964
1776.22024,2.40031
1775.19055,2.40100
1774.16086,2.40171
1773.13117,2.40246
1772.10147,2.40323
1771.07178,2.40403
1770.04209,2.40486
1769.01239,2.40572
1767.98270,2.40661
1766.95301,2.40752
1765.92332,2.40846
1764.89362,2.40940
1763.86393,2.41035
1762.83424,2.41128
1761.80454,2.41217
1760.77485,2.41301
1759.74516,2.41379
1758.71547,2.41446
1757.68577,2.41502
1756.65608,2.41544
1755.62639,2.41570
1754.59669,2.41578
1753.56700,2.41565
1752.53731,2.41528
1751.50762,2.41466
1750.47792,2.41377
1749.44823,2.41258
1748.41854,2.41109
1747.38884,2.40929
1746.35915,2.40717
1745.32946,2.40475
1744.29977,2.40202
1743.27007,2.39902
1742.24038,2.39574
1741.21069,2.39223
1740.18099,2.38852
1739.15130,2.38463
1738.12161,2.38060
1737.09191,2.37649
1736.06222,2.37231
1735.03253,2.36811
1734.00284,2.36393
1732.97314,2.35979
1731.94345,2.35573
1730.91376,2.35176
1729.88406,2.34788
1728.85437,2.34412
1727.82468,2.34045
1726.79499,2.33689
1725.76529,2.33341
1724.73560,2.33001
1723.70591,2.32667
1722.67621,2.32336
1721.64652,2.32009
1720.61683,2.31683
1719.58714,2.31358
1718.55744,2.31033
1717.52775,2.30707
1716.49806,2.30382
1715.46836,2.30058
1714.43867,2.29735
1713.40898,2.29416
1712.37929,2.29100
1711.34959,2.28790
1710.31990,2.28488
1709.29021,2.28195
1708.26051,2.27913
1707.23082,2.27645
1706.20113,2.27391
1705.17144,2.27155
1704.14174,2.26939
1703.11205,2.26743
1702.08236,2.26570
1701.05266,2.26420
1700.02297,2.26294
1698.99328,2.26193
1697.96358,2.26119
1696.93389,2.26070
1695.90420,2.26047
1694.87451,2.26050
1693.84481,2.26078
1692.81512,2.26129
1691.78543,2.26201
1690.75573,2.26292
1689.72604,2.26399
1688.69635,2.26520
1687.66666,2.26649
1686.63696,2.26784
1685.60727,2.26923
1684.57758,2.27061
1683.54788,2.27197
1682.51819,2.27329
1681.48850,2.27455
1680.45881,2.27574
1679.42911,2.27685
1678.39942,2.27787
1677.36973,2.27880
1676.34003,2.27964
1675.31034,2.28042
1674.28065,2.28114
1673.25096,2.28184
1672.22126,2.28252
1671.19157,2.28320
1670.16188,2.28389
1669.13218,2.28462
1668.10249,2.28537
1667.07280,2.28616
1666.04311,2.28698
1665.01341,2.28783
1663.98372,2.28869
1662.95403,2.28954
1661.92433,2.29038
1660.89464,2.29119
1659.86495,2.29196
1658.83525,2.29266
1657.80556,2.29330
1656.77587,2.29385
1655.74618,2.29432
1654.71648,2.29469
1653.68679,2.29498
1652.65710,2.29518
1651.62740,2.29532
1650.59771,2.29543
1649.56802,2.29551
1648.53833,2.29558
1647.50863,2.29567
1646.47894,2.29578
1645.44925,2.29594
1644.41955,2.29614
1643.38986,2.29641
1642.36017,2.29673
1641.33048,2.29710
1640.30078,2.29753
1639.27109,2.29798
1638.24140,2.29846
1637.21170,2.29895
1636.18201,2.29944
1635.15232,2.29989
1634.12263,2.30031
1633.09293,2.30067
1632.06324,2.30097
1631.03355,2.30119
1630.00385,2.30132
1628.97416,2.30137
1627.94447,2.30133
1626.91478,2.30121
1625.88508,2.30102
1624.85539,2.30077
1623.82570,2.30045
1622.79600,2.30009
1621.76631,2.29970
1620.73662,2.29930
1619.70692,2.29890
1618.67723,2.29853
1617.64754,2.29818
1616.61785,2.29788
1615.58815,2.29764
1614.55846,2.29746
1613.52877,2.29736
1612.49907,2.29734
1611.46938,2.29739
1610.43969,2.29751
1609.41000,2.29771
1608.38030,2.29797
1607.35061,2.29827
1606.32092,2.29862
1605.29122,2.29899
1604.26153,2.29937
1603.23184,2.29976
1602.20215,2.30015
1601.17245,2.30053
1600.14276,2.30089
1599.11307,2.30124
1598.08337,2.30159
1597.05368,2.30193
1596.02399,2.30227
1594.99430,2.30262
1593.96460,2.30298
1592.93491,2.30336
1591.90522,2.30377
1590.87552,2.30420
1589.84583,2.30467
1588.81614,2.30516
1587.78645,2.30569
1586.75675,2.30623
1585.72706,2.30678
1584.69737,2.30734
1583.66767,2.30789
1582.63798,2.30842
1581.60829,2.30893
1580.57859,2.30941
1579.54890,2.30985
1578.51921,2.31026
1577.48952,2.31063
1576.45982,2.31095
1575.43013,2.31123
1574.40044,2.31147
1573.37074,2.31168
1572.34105,2.31185
1571.31136,2.31198
1570.28167,2.31207
1569.25197,2.31213
1568.22228,2.31215
1567.19259,2.31215
1566.16289,2.31212
1565.13320,2.31207
1564.10351,2.31201
1563.07382,2.31193
1562.04412,2.31186
1561.01443,2.31178
1559.98474,2.31173
1558.95504,2.31170
1557.92535,2.31170
1556.89566,2.31175
1555.86597,2.31186
1554.83627,2.31202
1553.80658,2.31224
1552.77689,2.31250
1551.74719,2.31280
1550.71750,2.31313
1549.68781,2.31347
1548.65812,2.31380
1547.62842,2.31412
1546.59873,2.31440
1545.56904,2.31463
1544.53934,2.31480
1543.50965,2.31490
1542.47996,2.31492
1541.45026,2.31487
1540.42057,2.31475
1539.39088,2.31457
1538.36119,2.31435
1537.33149,2.31410
1536.30180,2.31385
1535.27211,2.31362
1534.24241,2.31341
1533.21272,2.31325
1532.18303,2.31315
1531.15334,2.31311
1530.12364,2.31314
1529.09395,2.31323
1528.06426,2.31338
1527.03456,2.31359
1526.00487,2.31384
1524.97518,2.31411
1523.94549,2.31440
1522.91579,2.31469
1521.88610,2.31494
1520.85641,2.31515
1519.82671,2.31531
1518.79702,2.31541
1517.76733,2.31544
1516.73764,2.31540
1515.70794,2.31530
1514.67825,2.31513
1513.64856,2.31492
1512.61886,2.31465
1511.58917,2.31435
1510.55948,2.31402
1509.52979,2.31369
1508.50009,2.31336
1507.47040,2.31307
1506.44071,2.31282
1505.41101,2.31265
1504.38132,2.31258
1503.35163,2.31262
1502.32193,2.31279
1501.29224,2.31310
1500.26255,2.31356
1499.23286,2.31419
1498.20316,2.31499
1497.17347,2.31596
1496.14378,2.31712
1495.11408,2.31846
1494.08439,2.31999
1493.05470,2.32171
1492.02501,2.32359
1490.99531,2.32564
1489.96562,2.32785
1488.93593,2.33019
1487.90623,2.33265
1486.87654,2.33522
1485.84685,2.33789
1484.81716,2.34063
1483.78746,2.34343
1482.75777,2.34625
1481.72808,2.34909
1480.69838,2.35190
1479.66869,2.35466
1478.63900,2.35734
1477.60931,2.35991
1476.57961,2.36233
1475.54992,2.36456
1474.52023,2.36656
1473.49053,2.36831
1472.46084,2.36975
1471.43115,2.37087
1470.40145,2.37163
1469.37176,2.37202
1468.34207,2.37201
1467.31238,2.37159
1466.28268,2.37078
1465.25299,2.36957
1464.22330,2.36800
1463.19360,2.36609
1462.16391,2.36388
1461.13422,2.36143
1460.10453,2.35877
1459.07483,2.35597
1458.04514,2.35308
1457.01545,2.35019
1455.98575,2.34734
1454.95606,2.34460
1453.92637,2.34202
1452.89668,2.33965
1451.86698,2.33752
1450.83729,2.33565
1449.80760,2.33406
1448.77790,2.33274
1447.74821,2.33168
1446.71852,2.33087
1445.68883,2.33030
1444.65913,2.32993
1443.62944,2.32974
1442.59975,2.32969
1441.57005,2.32975
1440.54036,2.32989
1439.51067,2.33009
1438.48098,2.33032
1437.45128,2.33058
1436.42159,2.33083
1435.39190,2.33109
1434.36220,2.33134
1433.33251,2.33159
1432.30282,2.33184
1431.27312,2.33211
1430.24343,2.33239
1429.21374,2.33268
1428.18405,2.33299
1427.15435,2.33331
1426.12466,2.33365
1425.09497,2.33399
1424.06527,2.33433
1423.03558,2.33466
1422.00589,2.33499
1420.97620,2.33531
1419.94650,2.33562
1418.91681,2.33592
1417.88712,2.33621
1416.85742,2.33649
1415.82773,2.33678
1414.79804,2.33708
1413.76835,2.33740
1412.73865,2.33773
1411.70896,2.33809
1410.67927,2.33848
1409.64957,2.33890
1408.61988,2.33935
1407.59019,2.33982
1406.56050,2.34032
1405.53080,2.34084
1404.50111,2.34137
1403.47142,2.34189
1402.44172,2.34240
1401.41203,2.34288
1400.38234,2.34333
1399.35265,2.34373
1398.32295,2.34408
1397.29326,2.34437
1396.26357,2.34461
1395.23387,2.34479
1394.20418,2.34492
1393.17449,2.34502
1392.14479,2.34507
1391.11510,2.34508
1390.08541,2.34505
1389.05572,2.34499
1388.02602,2.34487
1386.99633,2.34471
1385.96664,2.34449
1384.93694,2.34422
1383.90725,2.34388
1382.87756,2.34348
1381.84787,2.34299
1380.81817,2.34241
1379.78848,2.34174
1378.75879,2.34097
1377.72909,2.34009
1376.69940,2.33911
1375.66971,2.33803
1374.64002,2.33686
1373.61032,2.33561
1372.58063,2.33432
1371.55094,2.33300
1370.52124,2.33168
1369.49155,2.33039
1368.46186,2.32916
1367.43217,2.32801
1366.40247,2.32698
1365.37278,2.32607
1364.34309,2.32533
1363.31339,2.32475
1362.28370,2.32437
1361.25401,2.32419
1360.22432,2.32421
1359.19462,2.32443
1358.16493,2.32484
1357.13524,2.32541
1356.10554,2.32613
1355.07585,2.32698
1354.04616,2.32792
1353.01646,2.32893
1351.98677,2.32998
1350.95708,2.33105
1349.92739,2.33210
1348.89769,2.33313
1347.86800,2.33410
1346.83831,2.33502
1345.80861,2.33587
1344.77892,2.33664
1343.74923,2.33733
1342.71954,2.33795
1341.68984,2.33850
1340.66015,2.33900
1339.63046,2.33945
1338.60076,2.33988
1337.57107,2.34029
1336.54138,2.34070
1335.51169,2.34111
1334.48199,2.34155
1333.45230,2.34201
1332.42261,2.34250
1331.39291,2.34302
1330.36322,2.34358
1329.33353,2.34417
1328.30384,2.34479
1327.27414,2.34543
1326.24445,2.34608
1325.21476,2.34674
1324.18506,2.34739
1323.15537,2.34802
1322.12568,2.34862
1321.09599,2.34918
1320.06629,2.34969
1319.03660,2.35015
1318.00691,2.35056
1316.97721,2.35090
1315.94752,2.35119
1314.91783,2.35142
1313.88813,2.35160
1312.85844,2.35174
1311.82875,2.35185
1310.79906,2.35193
1309.76936,2.35199
1308.73967,2.35205
1307.70998,2.35212
1306.68028,2.35220
1305.65059,2.35230
1304.62090,2.35242
1303.59121,2.35257
1302.56151,2.35274
1301.53182,2.35292
1300.50213,2.35311
1299.47243,2.35330
1298.44274,2.35347
1297.41305,2.35362
1296.38336,2.35374
1295.35366,2.35380
1294.32397,2.35382
1293.29428,2.35377
1292.26458,2.35365
1291.23489,2.35347
1290.20520,2.35322
1289.17551,2.35292
1288.14581,2.35256
1287.11612,2.35216
1286.08643,2.35175
1285.05673,2.35132
1284.02704,2.35090
1282.99735,2.35049
1281.96766,2.35012
1280.93796,2.34978
1279.90827,2.34948
1278.87858,2.34923
1277.84888,2.34902
1276.81919,2.34885
1275.78950,2.34872
1274.75980,2.34862
1273.73011,2.34853
1272.70042,2.34843
1271.67073,2.34833
1270.64103,2.34819
1269.61134,2.34801
1268.58165,2.34777
1267.55195,2.34746
1266.52226,2.34708
1265.49257,2.34661
1264.46288,2.34607
1263.43318,2.34544
1262.40349,2.34475
1261.37380,2.34399
1260.34410,2.34317
1259.31441,2.34231
1258.28472,2.34142
1257.25503,2.34051
1256.22533,2.33960
1255.19564,2.33870
1254.16595,2.33782
1253.13625,2.33697
1252.10656,2.33616
1251.07687,2.33540
1250.04718,2.33469
1249.01748,2.33404
1247.98779,2.33344
1246.95810,2.33290
1245.92840,2.33241
1244.89871,2.33196
1243.86902,2.33154
1242.83933,2.33116
1241.80963,2.33080
1240.77994,2.33047
1239.75025,2.33014
1238.72055,2.32984
1237.69086,2.32954
1236.66117,2.32924
1235.63147,2.32896
1234.60178,2.32868
1233.57209,2.32842
1232.54240,2.32817
1231.51270,2.32794
1230.48301,2.32772
1229.45332,2.32754
1228.42362,2.32738
1227.39393,2.32725
1226.36424,2.32716
1225.33455,2.32709
1224.30485,2.32706
1223.27516,2.32705
1222.24547,2.32707
1221.21577,2.32711
1220.18608,2.32715
1219.15639,2.32720
1218.12670,2.32725
1217.09700,2.32729
1216.06731,2.32731
1215.03762,2.32732
1214.00792,2.32730
1212.97823,2.32726
1211.94854,2.32720
1210.91885,2.32712
1209.88915,2.32702
1208.85946,2.32691
1207.82977,2.32680
1206.80007,2.32668
1205.77038,2.32657
1204.74069,2.32646
1203.71100,2.32636
1202.68130,2.32628
1201.65161,2.32620
1200.62192,2.32614
1199.59222,2.32608
1198.56253,2.32602
1197.53284,2.32596
1196.50314,2.32588
1195.47345,2.32577
1194.44376,2.32564
1193.41407,2.32546
1192.38437,2.32523
1191.35468,2.32495
1190.32499,2.32460
1189.29529,2.32421
1188.26560,2.32375
1187.23591,2.32324
1186.20622,2.32269
1185.17652,2.32208
1184.14683,2.32145
1183.11714,2.32077
1182.08744,2.32008
1181.05775,2.31936
1180.02806,2.31864
1178.99837,2.31791
1177.96867,2.31718
1176.93898,2.31646
1175.90929,2.31576
1174.87959,2.31507
1173.84990,2.31439
1172.82021,2.31373
1171.79052,2.31308
1170.76082,2.31245
1169.73113,2.31183
1168.70144,2.31123
1167.67174,2.31064
1166.64205,2.31008
1165.61236,2.30953
1164.58266,2.30901
1163.55297,2.30852
1162.52328,2.30805
1161.49359,2.30762
1160.46389,2.30722
1159.43420,2.30685
1158.40451,2.30653
1157.37481,2.30625
1156.34512,2.30602
1155.31543,2.30585
1154.28574,2.30573
1153.25604,2.30568
1152.22635,2.30570
1151.19666,2.30579
1150.16696,2.30595
1149.13727,2.30618
1148.10758,2.30647
1147.07789,2.30683
1146.04819,2.30725
1145.01850,2.30771
1143.98881,2.30820
1142.95911,2.30872
1141.92942,2.30924
1140.89973,2.30975
1139.87004,2.31024
1138.84034,2.31068
1137.81065,2.31108
1136.78096,2.31141
1135.75126,2.31166
1134.72157,2.31184
1133.69188,2.31194
1132.66219,2.31196
1131.63249,2.31192
1130.60280,2.31182
1129.57311,2.31168
1128.54341,2.31152
1127.51372,2.31135
1126.48403,2.31118
1125.45433,2.31104
1124.42464,2.31095
1123.39495,2.31092
1122.36526,2.31095
1121.33556,2.31106
1120.30587,2.31124
1119.27618,2.31150
1118.24648,2.31183
1117.21679,2.31221
1116.18710,2.31264
1115.15741,2.31310
1114.12771,2.31357
1113.09802,2.31403
1112.06833,2.31447
1111.03863,2.31487
1110.00894,2.31521
1108.97925,2.31547
1107.94956,2.31566
1106.91986,2.31575
1105.89017,2.31574
1104.86048,2.31564
1103.83078,2.31545
1102.80109,2.31517
1101.77140,2.31481
1100.74171,2.31439
1099.71201,2.31392
1098.68232,2.31341
1097.65263,2.31289
1096.62293,2.31236
1095.59324,2.31183
1094.56355,2.31133
1093.53386,2.31085
1092.50416,2.31040
1091.47447,2.31000
1090.44478,2.30964
1089.41508,2.30932
1088.38539,2.30904
1087.35570,2.30879
1086.32600,2.30857
1085.29631,2.30837
1084.26662,2.30818
1083.23693,2.30799
1082.20723,2.30779
1081.17754,2.30757
1080.14785,2.30734
1079.11815,2.30708
1078.08846,2.30680
1077.05877,2.30649
1076.02908,2.30617
1074.99938,2.30583
1073.96969,2.30546
1072.94000,2.30509
1071.91030,2.30470
1070.88061,2.30431
1069.85092,2.30391
1068.82123,2.30352
1067.79153,2.30312
1066.76184,2.30274
1065.73215,2.30236
1064.70245,2.30198
1063.67276,2.30161
1062.64307,2.30123
1061.61338,2.30086
1060.58368,2.30047
1059.55399,2.30007
1058.52430,2.29965
1057.49460,2.29920
1056.46491,2.29872
1055.43522,2.29821
1054.40553,2.29767
1053.37583,2.29709
1052.34614,2.29647
1051.31645,2.29580
1050.28675,2.29509
1049.25706,2.29433
1048.22737,2.29352
1047.19767,2.29267
1046.16798,2.29178
1045.13829,2.29085
1044.10860,2.28989
1043.07890,2.28889
1042.04921,2.28788
1041.01952,2.28684
1039.98982,2.28580
1038.96013,2.28476
1037.93044,2.28372
1036.90075,2.28269
1035.87105,2.28168
1034.84136,2.28071
1033.81167,2.27977
1032.78197,2.27887
1031.75228,2.27802
1030.72259,2.27723
1029.69290,2.27650
1028.66320,2.27582
1027.63351,2.27519
1026.60382,2.27461
1025.57412,2.27408
1024.54443,2.27359
1023.51474,2.27312
1022.48505,2.27268
1021.45535,2.27225
1020.42566,2.27183
1019.39597,2.27142
1018.36627,2.27100
1017.33658,2.27059
1016.30689,2.27017
1015.27720,2.26976
1014.24750,2.26937
1013.21781,2.26900
1012.18812,2.26866
1011.15842,2.26838
1010.12873,2.26816
1009.09904,2.26802
1008.06934,2.26798
1007.03965,2.26804
1006.00996,2.26821
1004.98027,2.26848
1003.95057,2.26887
1002.92088,2.26935
1001.89119,2.26993
1000.86149,2.27058
999.83180,2.27129
998.80211,2.27204
997.77242,2.27281
996.74272,2.27358
995.71303,2.27432
994.68334,2.27502
993.65364,2.27566
992.62395,2.27623
991.59426,2.27672
990.56457,2.27713
989.53487,2.27746
988.50518,2.27772
987.47549,2.27792
986.44579,2.27807
985.41610,2.27818
984.38641,2.27827
983.35672,2.27836
982.32702,2.27845
981.29733,2.27856
980.26764,2.27870
979.23794,2.27887
978.20825,2.27909
977.17856,2.27934
976.14887,2.27964
975.11917,2.27998
974.08948,2.28036
973.05979,2.28076
972.03009,2.28119
971.00040,2.28163
969.97071,2.28207
968.94101,2.28253
967.91132,2.28298
966.88163,2.28342
965.85194,2.28385
964.82224,2.28427
963.79255,2.28467
962.76286,2.28506
961.73316,2.28542
960.70347,2.28577
959.67378,2.28608
958.64409,2.28637
957.61439,2.28662
956.58470,2.28685
955.55501,2.28704
954.52531,2.28720
953.49562,2.28734
952.46593,2.28745
951.43624,2.28754
950.40654,2.28762
949.37685,2.28769
948.34716,2.28776
947.31746,2.28786
946.28777,2.28798
945.25808,2.28815
944.22839,2.28837
943.19869,2.28865
942.16900,2.28900
941.13931,2.28943
940.10961,2.28992
939.07992,2.29047
938.05023,2.29109
937.02054,2.29175
935.99084,2.29244
934.96115,2.29314
933.93146,2.29383
932.90176,2.29450
931.87207,2.29512
930.84238,2.29568
929.81268,2.29615
928.78299,2.29652
927.75330,2.29679
926.72361,2.29695
925.69391,2.29700
924.66422,2.29696
923.63453,2.29682
922.60483,2.29663
921.57514,2.29638
920.54545,2.29611
919.51576,2.29584
918.48606,2.29559
917.45637,2.29538
916.42668,2.29523
915.39698,2.29515
914.36729,2.29516
913.33760,2.29527
912.30791,2.29546
911.27821,2.29575
910.24852,2.29612
909.21883,2.29655
908.18913,2.29704
907.15944,2.29755
906.12975,2.29808
905.10006,2.29860
904.07036,2.29910
903.04067,2.29956
902.01098,2.29998
900.98128,2.30034
899.95159,2.30065
898.92190,2.30091
897.89221,2.30112
896.86251,2.30130
895.83282,2.30143
894.80313,2.30154
893.77343,2.30164
892.74374,2.30172
891.71405,2.30180
890.68435,2.30188
889.65466,2.30198
888.62497,2.30209
887.59528,2.30222
886.56558,2.30238
885.53589,2.30255
884.50620,2.30275
883.47650,2.30297
882.44681,2.30320
881.41712,2.30345
880.38743,2.30372
879.35773,2.30399
878.32804,2.30428
877.29835,2.30459
876.26865,2.30491
875.23896,2.30524
874.20927,2.30558
873.17958,2.30592
872.14988,2.30627
871.12019,2.30662
870.09050,2.30695
869.06080,2.30728
868.03111,2.30760
867.00142,2.30790
865.97173,2.30821
864.94203,2.30852
863.91234,2.30884
862.88265,2.30919
861.85295,2.30958
860.82326,2.31001
859.79357,2.31051
858.76387,2.31108
857.73418,2.31172
856.70449,2.31244
855.67480,2.31324
854.64510,2.31411
853.61541,2.31504
852.58572,2.31602
851.55602,2.31702
850.52633,2.31802
849.49664,2.31899
848.46695,2.31991
847.43725,2.32074
846.40756,2.32147
845.37787,2.32207
844.34817,2.32253
843.31848,2.32285
842.28879,2.32303
841.25910,2.32309
840.22940,2.32303
839.19971,2.32288
838.17002,2.32268
837.14032,2.32245
836.11063,2.32224
835.08094,2.32207
834.05125,2.32197
833.02155,2.32196
831.99186,2.32206
830.96217,2.32228
829.93247,2.32263
828.90278,2.32309
827.87309,2.32366
826.84340,2.32430
825.81370,2.32500
824.78401,2.32573
823.75432,2.32644
822.72462,2.32712
821.69493,2.32774
820.66524,2.32828
819.63554,2.32871
818.60585,2.32904
817.57616,2.32928
816.54647,2.32942
815.51677,2.32949
814.48708,2.32951
813.45739,2.32951
812.42769,2.32952
811.39800,2.32956
810.36831,2.32967
809.33862,2.32988
808.30892,2.33019
807.27923,2.33061
806.24954,2.33116
805.21984,2.33181
804.19015,2.33257
803.16046,2.33339
802.13077,2.33425
801.10107,2.33512
800.07138,2.33596
799.04169,2.33673
798.01199,2.33740
796.98230,2.33796
795.95261,2.33837
794.92292,2.33862
793.89322,2.33871
792.86353,2.33865
791.83384,2.33843
790.80414,2.33809
789.77445,2.33763
788.74476,2.33711
787.71507,2.33653
786.68537,2.33596
785.65568,2.33542
784.62599,2.33494
783.59629,2.33456
782.56660,2.33431
781.53691,2.33420
780.50721,2.33424
779.47752,2.33445
778.44783,2.33483
777.41814,2.33537
776.38844,2.33607
775.35875,2.33691
774.32906,2.33789
773.29936,2.33897
772.26967,2.34015
771.23998,2.34139
770.21029,2.34267
769.18059,2.34394
768.15090,2.34518
767.12121,2.34635
766.09151,2.34741
765.06182,2.34833
764.03213,2.34909
763.00244,2.34966
761.97274,2.35001
760.94305,2.35014
759.91336,2.35003
758.88366,2.34968
757.85397,2.34911
756.82428,2.34833
755.79459,2.34736
754.76489,2.34625
753.73520,2.34503
752.70551,2.34376
751.67581,2.34248
750.64612,2.34125
749.61643,2.34012
748.58674,2.33914
747.55704,2.33835
746.52735,2.33779
745.49766,2.33747
744.46796,2.33743
743.43827,2.33765
742.40858,2.33815
741.37888,2.33890
740.34919,2.33988
739.31950,2.34105
738.28981,2.34239
737.26011,2.34386
736.23042,2.34541
735.20073,2.34702
734.17103,2.34865
733.14134,2.35028
732.11165,2.35187
731.08196,2.35341
730.05226,2.35487
729.02257,2.35624
727.99288,2.35750
726.96318,2.35866
725.93349,2.35969
724.90380,2.36060
723.87411,2.36138
722.84441,2.36205
721.81472,2.36259
720.78503,2.36301
719.75533,2.36332
718.72564,2.36353
717.69595,2.36363
716.66626,2.36364
715.63656,2.36358
714.60687,2.36347
713.57718,2.36333
712.54748,2.36321
711.51779,2.36313
710.48810,2.36315
709.45841,2.36328
708.42871,2.36357
707.39902,2.36404
706.36933,2.36470
705.33963,2.36557
704.30994,2.36665
703.28025,2.36791
702.25055,2.36934
701.22086,2.37091
700.19117,2.37256
699.16148,2.37425
698.13178,2.37593
697.10209,2.37754
696.07240,2.37901
695.04270,2.38031
694.01301,2.38138
692.98332,2.38218
691.95363,2.38270
690.92393,2.38292
689.89424,2.38285
688.86455,2.38250
687.83485,2.38192
686.80516,2.38115
685.77547,2.38024
684.74578,2.37927
683.71608,2.37829
682.68639,2.37736
681.65670,2.37654
680.62700,2.37588
679.59731,2.37541
678.56762,2.37517
677.53793,2.37516
676.50823,2.37539
675.47854,2.37585
674.44885,2.37652
673.41915,2.37735
672.38946,2.37833
671.35977,2.37939
670.33008,2.38049
669.30038,2.38157
668.27069,2.38258
667.24100,2.38346
666.21130,2.38419
665.18161,2.38473
664.15192,2.38507
663.12222,2.38520
662.09253,2.38511
661.06284,2.38482
660.03315,2.38434
659.00345,2.38369
657.97376,2.38289
656.94407,2.38197
655.91437,2.38096
654.88468,2.37991
653.85499,2.37884
652.82530,2.37779
651.79560,2.37677
650.76591,2.37583
649.73622,2.37496
648.70652,2.37418
647.67683,2.37349
646.64714,2.37289
645.61745,2.37237
644.58775,2.37192
643.55806,2.37153
642.52837,2.37119
641.49867,2.37091
640.46898,2.37065
639.43929,2.37043
638.40960,2.37022
637.37990,2.37002
636.35021,2.36982
635.32052,2.36961
634.29082,2.36939
633.26113,2.36917
632.23144,2.36895
631.20175,2.36874
630.17205,2.36855
629.14236,2.36838
628.11267,2.36823
627.08297,2.36810
626.05328,2.36799
625.02359,2.36790
623.99389,2.36782
622.96420,2.36774
621.93451,2.36768
620.90482,2.36763
619.87512,2.36758
618.84543,2.36754
617.81574,2.36751
616.78604,2.36748
615.75635,2.36745
614.72666,2.36743
613.69697,2.36740
612.66727,2.36737
611.63758,2.36734
610.60789,2.36734
609.57819,2.36734
608.54850,2.36734
607.51881,2.36734
606.48912,2.36734
605.45942,2.36734
604.42973,2.36734
603.40004,2.36734
602.37034,2.36734
601.34065,2.36734
600.31096,2.36734
599.28127,2.36734
