5997.96112,1.47235
5996.93142,1.47235
5995.90173,1.47235
5994.87204,1.47235
5993.84235,1.47235
5992.81265,1.47235
5991.78296,1.47235
5990.75327,1.47235
5989.72357,1.47235
5988.69388,1.47235
5987.66419,1.47235
5986.63450,1.47235
5985.60480,1.47235
5984.57511,1.47235
5983.54542,1.47244
5982.51572,1.47260
5981.48603,1.47280
5980.45634,1.47306
5979.42665,1.47335
5978.39695,1.47364
5977.36726,1.47390
5976.33757,1.47409
5975.30787,1.47417
5974.27818,1.47426
5973.24849,1.47450
5972.21879,1.47493
5971.18910,1.47537
5970.15941,1.47571
5969.12972,1.47593
5968.10002,1.47609
5967.07033,1.47628
5966.04064,1.47658
5965.01094,1.47697
5963.98125,1.47746
5962.95156,1.47807
5961.92187,1.47887
5960.89217,1.47990
5959.86248,1.48112
5958.83279,1.48238
5957.80309,1.48360
5956.77340,1.48480
5955.74371,1.48599
5954.71402,1.48706
5953.68432,1.48797
5952.65463,1.48871
5951.62494,1.48930
5950.59524,1.48981
5949.56555,1.49042
5948.53586,1.49114
5947.50617,1.49185
5946.47647,1.49240
5945.44678,1.49267
5944.41709,1.49271
5943.38739,1.49266
5942.35770,1.49258
5941.32801,1.49250
5940.29831,1.49239
5939.26862,1.49216
5938.23893,1.49183
5937.20924,1.49148
5936.17954,1.49120
5935.14985,1.49098
5934.12016,1.49082
5933.09046,1.49080
5932.06077,1.49100
5931.03108,1.49137
5930.00139,1.49185
5928.97169,1.49250
5927.94200,1.49329
5926.91231,1.49424
5925.88261,1.49534
5924.85292,1.49653
5923.82323,1.49765
5922.79354,1.49860
5921.76384,1.49931
5920.73415,1.49974
5919.70446,1.49995
5918.67476,1.49999
5917.64507,1.49983
5916.61538,1.49944
5915.58569,1.49886
5914.55599,1.49812
5913.52630,1.49734
5912.49661,1.49659
5911.46691,1.49598
5910.43722,1.49562
5909.40753,1.49555
5908.37784,1.49575
5907.34814,1.49613
5906.31845,1.49667
5905.28876,1.49735
5904.25906,1.49812
5903.22937,1.49888
5902.19968,1.49961
5901.16998,1.50017
5900.14029,1.50044
5899.11060,1.50039
5898.08091,1.50013
5897.05121,1.49971
5896.02152,1.49922
5894.99183,1.49875
5893.96213,1.49836
5892.93244,1.49814
5891.90275,1.49812
5890.87306,1.49833
5889.84336,1.49878
5888.81367,1.49944
5887.78398,1.50034
5886.75428,1.50151
5885.72459,1.50289
5884.69490,1.50435
5883.66521,1.50584
5882.63551,1.50733
5881.60582,1.50880
5880.57613,1.51019
5879.54643,1.51146
5878.51674,1.51253
5877.48705,1.51335
5876.45736,1.51382
5875.42766,1.51398
5874.39797,1.51392
5873.36828,1.51372
5872.33858,1.51349
5871.30889,1.51332
5870.27920,1.51324
5869.24951,1.51327
5868.21981,1.51336
5867.19012,1.51344
5866.16043,1.51349
5865.13073,1.51353
5864.10104,1.51357
5863.07135,1.51357
5862.04165,1.51347
5861.01196,1.51324
5859.98227,1.51293
5858.95258,1.51267
5857.92288,1.51256
5856.89319,1.51259
5855.86350,1.51275
5854.83380,1.51306
5853.80411,1.51351
5852.77442,1.51408
5851.74473,1.51477
5850.71503,1.51560
5849.68534,1.51658
5848.65565,1.51777
5847.62595,1.51922
5846.59626,1.52081
5845.56657,1.52236
5844.53688,1.52381
5843.50718,1.52511
5842.47749,1.52623
5841.44780,1.52717
5840.41810,1.52790
5839.38841,1.52834
5838.35872,1.52838
5837.32903,1.52801
5836.29933,1.52729
5835.26964,1.52639
5834.23995,1.52549
5833.21025,1.52461
5832.18056,1.52372
5831.15087,1.52290
5830.12118,1.52225
5829.09148,1.52175
5828.06179,1.52134
5827.03210,1.52104
5826.00240,1.52090
5824.97271,1.52101
5823.94302,1.52143
5822.91332,1.52211
5821.88363,1.52287
5820.85394,1.52367
5819.82425,1.52454
5818.79455,1.52545
5817.76486,1.52637
5816.73517,1.52728
5815.70547,1.52813
5814.67578,1.52883
5813.64609,1.52933
5812.61640,1.52961
5811.58670,1.52982
5810.55701,1.53006
5809.52732,1.53032
5808.49762,1.53060
5807.46793,1.53093
5806.43824,1.53131
5805.40855,1.53163
5804.37885,1.53182
5803.34916,1.53190
5802.31947,1.53191
5801.28977,1.53191
5800.26008,1.53194
5799.23039,1.53202
5798.20070,1.53216
5797.17100,1.53238
5796.14131,1.53265
5795.11162,1.53299
5794.08192,1.53343
5793.05223,1.53397
5792.02254,1.53447
5790.99285,1.53480
5789.96315,1.53490
5788.93346,1.53480
5787.90377,1.53463
5786.87407,1.53453
5785.84438,1.53454
5784.81469,1.53462
5783.78499,1.53478
5782.75530,1.53493
5781.72561,1.53496
5780.69592,1.53480
5779.66622,1.53451
5778.63653,1.53418
5777.60684,1.53388
5776.57714,1.53371
5775.54745,1.53373
5774.51776,1.53404
5773.48807,1.53463
5772.45837,1.53543
5771.42868,1.53639
5770.39899,1.53745
5769.36929,1.53854
5768.33960,1.53957
5767.30991,1.54042
5766.28022,1.54108
5765.25052,1.54162
5764.22083,1.54213
5763.19114,1.54269
5762.16144,1.54330
5761.13175,1.54390
5760.10206,1.54446
5759.07237,1.54492
5758.04267,1.54520
5757.01298,1.54531
5755.98329,1.54529
5754.95359,1.54526
5753.92390,1.54528
5752.89421,1.54536
5751.86452,1.54551
5750.83482,1.54572
5749.80513,1.54594
5748.77544,1.54615
5747.74574,1.54633
5746.71605,1.54641
5745.68636,1.54636
5744.65666,1.54621
5743.62697,1.54601
5742.59728,1.54575
5741.56759,1.54543
5740.53789,1.54512
5739.50820,1.54488
5738.47851,1.54476
5737.44881,1.54474
5736.41912,1.54485
5735.38943,1.54509
5734.35974,1.54541
5733.33004,1.54578
5732.30035,1.54622
5731.27066,1.54674
5730.24096,1.54737
5729.21127,1.54812
5728.18158,1.54903
5727.15189,1.55009
5726.12219,1.55121
5725.09250,1.55234
5724.06281,1.55345
5723.03311,1.55450
5722.00342,1.55543
5720.97373,1.55626
5719.94404,1.55706
5718.91434,1.55781
5717.88465,1.55844
5716.85496,1.55889
5715.82526,1.55916
5714.79557,1.55926
5713.76588,1.55919
5712.73619,1.55893
5711.70649,1.55848
5710.67680,1.55784
5709.64711,1.55703
5708.61741,1.55609
5707.58772,1.55505
5706.55803,1.55399
5705.52833,1.55305
5704.49864,1.55236
5703.46895,1.55197
5702.43926,1.55182
5701.40956,1.55186
5700.37987,1.55209
5699.35018,1.55251
5698.32048,1.55313
5697.29079,1.55393
5696.26110,1.55490
5695.23141,1.55603
5694.20171,1.55722
5693.17202,1.55834
5692.14233,1.55931
5691.11263,1.56017
5690.08294,1.56089
5689.05325,1.56138
5688.02356,1.56161
5686.99386,1.56167
5685.96417,1.56164
5684.93448,1.56154
5683.90478,1.56136
5682.87509,1.56110
5681.84540,1.56084
5680.81571,1.56071
5679.78601,1.56074
5678.75632,1.56089
5677.72663,1.56107
5676.69693,1.56126
5675.66724,1.56150
5674.63755,1.56178
5673.60786,1.56210
5672.57816,1.56241
5671.54847,1.56274
5670.51878,1.56306
5669.48908,1.56325
5668.45939,1.56325
5667.42970,1.56311
5666.40000,1.56283
5665.37031,1.56235
5664.34062,1.56169
5663.31093,1.56097
5662.28123,1.56027
5661.25154,1.55958
5660.22185,1.55888
5659.19215,1.55812
5658.16246,1.55734
5657.13277,1.55658
5656.10308,1.55589
5655.07338,1.55529
5654.04369,1.55483
5653.01400,1.55454
5651.98430,1.55450
5650.95461,1.55476
5649.92492,1.55529
5648.89523,1.55605
5647.86553,1.55702
5646.83584,1.55817
5645.80615,1.55939
5644.77645,1.56060
5643.74676,1.56178
5642.71707,1.56293
5641.68738,1.56400
5640.65768,1.56493
5639.62799,1.56566
5638.59830,1.56617
5637.56860,1.56648
5636.53891,1.56658
5635.50922,1.56645
5634.47952,1.56609
5633.44983,1.56554
5632.42014,1.56486
5631.39045,1.56422
5630.36075,1.56372
5629.33106,1.56342
5628.30137,1.56338
5627.27167,1.56362
5626.24198,1.56412
5625.21229,1.56488
5624.18260,1.56592
5623.15290,1.56717
5622.12321,1.56852
5621.09352,1.56987
5620.06382,1.57120
5619.03413,1.57251
5618.00444,1.57374
5616.97475,1.57481
5615.94505,1.57560
5614.91536,1.57606
5613.88567,1.57625
5612.85597,1.57622
5611.82628,1.57592
5610.79659,1.57534
5609.76690,1.57460
5608.73720,1.57380
5607.70751,1.57298
5606.67782,1.57218
5605.64812,1.57135
5604.61843,1.57053
5603.58874,1.56980
5602.55905,1.56918
5601.52935,1.56867
5600.49966,1.56833
5599.46997,1.56816
5598.44027,1.56804
5597.41058,1.56790
5596.38089,1.56780
5595.35119,1.56781
5594.32150,1.56798
5593.29181,1.56823
5592.26212,1.56849
5591.23242,1.56874
5590.20273,1.56902
5589.17304,1.56939
5588.14334,1.56987
5587.11365,1.57047
5586.08396,1.57122
5585.05427,1.57213
5584.02457,1.57309
5582.99488,1.57401
5581.96519,1.57481
5580.93549,1.57552
5579.90580,1.57623
5578.87611,1.57697
5577.84642,1.57772
5576.81672,1.57848
5575.78703,1.57928
5574.75734,1.58004
5573.72764,1.58064
5572.69795,1.58108
5571.66826,1.58146
5570.63857,1.58180
5569.60887,1.58205
5568.57918,1.58219
5567.54949,1.58229
5566.51979,1.58243
5565.49010,1.58265
5564.46041,1.58295
5563.43072,1.58329
5562.40102,1.58365
5561.37133,1.58393
5560.34164,1.58411
5559.31194,1.58417
5558.28225,1.58418
5557.25256,1.58417
5556.22286,1.58422
5555.19317,1.58438
5554.16348,1.58463
5553.13379,1.58492
5552.10409,1.58522
5551.07440,1.58549
5550.04471,1.58568
5549.01501,1.58581
5547.98532,1.58589
5546.95563,1.58593
5545.92594,1.58589
5544.89624,1.58581
5543.86655,1.58579
5542.83686,1.58592
5541.80716,1.58612
5540.77747,1.58629
5539.74778,1.58641
5538.71809,1.58646
5537.68839,1.58638
5536.65870,1.58617
5535.62901,1.58593
5534.59931,1.58574
5533.56962,1.58561
5532.53993,1.58553
5531.51024,1.58548
5530.48054,1.58543
5529.45085,1.58532
5528.42116,1.58516
5527.39146,1.58498
5526.36177,1.58477
5525.33208,1.58454
5524.30239,1.58435
5523.27269,1.58415
5522.24300,1.58395
5521.21331,1.58388
5520.18361,1.58405
5519.15392,1.58445
5518.12423,1.58498
5517.09453,1.58546
5516.06484,1.58591
5515.03515,1.58639
5514.00546,1.58691
5512.97576,1.58741
5511.94607,1.58799
5510.91638,1.58877
5509.88668,1.58972
5508.85699,1.59072
5507.82730,1.59167
5506.79761,1.59256
5505.76791,1.59338
5504.73822,1.59415
5503.70853,1.59487
5502.67883,1.59551
5501.64914,1.59601
5500.61945,1.59642
5499.58976,1.59672
5498.56006,1.59692
5497.53037,1.59708
5496.50068,1.59721
5495.47098,1.59720
5494.44129,1.59694
5493.41160,1.59638
5492.38191,1.59562
5491.35221,1.59481
5490.32252,1.59399
5489.29283,1.59314
5488.26313,1.59229
5487.23344,1.59155
5486.20375,1.59090
5485.17406,1.59021
5484.14436,1.58944
5483.11467,1.58870
5482.08498,1.58816
5481.05528,1.58784
5480.02559,1.58769
5478.99590,1.58771
5477.96620,1.58786
5476.93651,1.58810
5475.90682,1.58841
5474.87713,1.58878
5473.84743,1.58928
5472.81774,1.58989
5471.78805,1.59051
5470.75835,1.59112
5469.72866,1.59180
5468.69897,1.59267
5467.66928,1.59374
5466.63958,1.59491
5465.60989,1.59604
5464.58020,1.59702
5463.55050,1.59776
5462.52081,1.59825
5461.49112,1.59842
5460.46143,1.59826
5459.43173,1.59788
5458.40204,1.59741
5457.37235,1.59685
5456.34265,1.59614
5455.31296,1.59527
5454.28327,1.59432
5453.25358,1.59335
5452.22388,1.59240
5451.19419,1.59158
5450.16450,1.59101
5449.13480,1.59075
5448.10511,1.59078
5447.07542,1.59114
5446.04573,1.59197
5445.01603,1.59332
5443.98634,1.59509
5442.95665,1.59705
5441.92695,1.59903
5440.89726,1.60087
5439.86757,1.60246
5438.83787,1.60378
5437.80818,1.60481
5436.77849,1.60551
5435.74880,1.60582
5434.71910,1.60578
5433.68941,1.60546
5432.65972,1.60490
5431.63002,1.60411
5430.60033,1.60317
5429.57064,1.60219
5428.54095,1.60125
5427.51125,1.60042
5426.48156,1.59975
5425.45187,1.59929
5424.42217,1.59901
5423.39248,1.59896
5422.36279,1.59921
5421.33310,1.59970
5420.30340,1.60027
5419.27371,1.60080
5418.24402,1.60121
5417.21432,1.60145
5416.18463,1.60150
5415.15494,1.60140
5414.12525,1.60118
5413.09555,1.60084
5412.06586,1.60037
5411.03617,1.59980
5410.00647,1.59926
5408.97678,1.59893
5407.94709,1.59882
5406.91740,1.59881
5405.88770,1.59890
5404.85801,1.59915
5403.82832,1.59954
5402.79862,1.60005
5401.76893,1.60065
5400.73924,1.60131
5399.70954,1.60196
5398.67985,1.60254
5397.65016,1.60291
5396.62047,1.60294
5395.59077,1.60265
5394.56108,1.60210
5393.53139,1.60138
5392.50169,1.60053
5391.47200,1.59964
5390.44231,1.59881
5389.41262,1.59802
5388.38292,1.59731
5387.35323,1.59680
5386.32354,1.59658
5385.29384,1.59673
5384.26415,1.59721
5383.23446,1.59786
5382.20477,1.59861
5381.17507,1.59948
5380.14538,1.60045
5379.11569,1.60146
5378.08599,1.60251
5377.05630,1.60359
5376.02661,1.60464
5374.99692,1.60556
5373.96722,1.60630
5372.93753,1.60683
5371.90784,1.60722
5370.87814,1.60754
5369.84845,1.60785
5368.81876,1.60810
5367.78906,1.60828
5366.75937,1.60846
5365.72968,1.60865
5364.69999,1.60887
5363.67029,1.60920
5362.64060,1.60964
5361.61091,1.61011
5360.58121,1.61054
5359.55152,1.61092
5358.52183,1.61126
5357.49214,1.61163
5356.46244,1.61202
5355.43275,1.61240
5354.40306,1.61280
5353.37336,1.61330
5352.34367,1.61391
5351.31398,1.61466
5350.28429,1.61554
5349.25459,1.61656
5348.22490,1.61770
5347.19521,1.61891
5346.16551,1.62011
5345.13582,1.62124
5344.10613,1.62226
5343.07644,1.62324
5342.04674,1.62425
5341.01705,1.62523
5339.98736,1.62610
5338.95766,1.62672
5337.92797,1.62701
5336.89828,1.62695
5335.86859,1.62665
5334.83889,1.62621
5333.80920,1.62576
5332.77951,1.62530
5331.74981,1.62478
5330.72012,1.62421
5329.69043,1.62363
5328.66073,1.62308
5327.63104,1.62261
5326.60135,1.62228
5325.57166,1.62215
5324.54196,1.62217
5323.51227,1.62229
5322.48258,1.62247
5321.45288,1.62271
5320.42319,1.62308
5319.39350,1.62356
5318.36381,1.62413
5317.33411,1.62476
5316.30442,1.62541
5315.27473,1.62600
5314.24503,1.62640
5313.21534,1.62662
5312.18565,1.62683
5311.15596,1.62717
5310.12626,1.62772
5309.09657,1.62843
5308.06688,1.62916
5307.03718,1.62983
5306.00749,1.63046
5304.97780,1.63107
5303.94811,1.63165
5302.91841,1.63225
5301.88872,1.63291
5300.85903,1.63358
5299.82933,1.63417
5298.79964,1.63468
5297.76995,1.63512
5296.74026,1.63550
5295.71056,1.63580
5294.68087,1.63598
5293.65118,1.63607
5292.62148,1.63611
5291.59179,1.63608
5290.56210,1.63583
5289.53240,1.63533
5288.50271,1.63478
5287.47302,1.63434
5286.44333,1.63406
5285.41363,1.63388
5284.38394,1.63371
5283.35425,1.63356
5282.32455,1.63350
5281.29486,1.63359
5280.26517,1.63384
5279.23548,1.63423
5278.20578,1.63475
5277.17609,1.63541
5276.14640,1.63619
5275.11670,1.63709
5274.08701,1.63813
5273.05732,1.63929
5272.02763,1.64052
5270.99793,1.64185
5269.96824,1.64330
5268.93855,1.64477
5267.90885,1.64617
5266.87916,1.64746
5265.84947,1.64863
5264.81978,1.64972
5263.79008,1.65078
5262.76039,1.65179
5261.73070,1.65275
5260.70100,1.65366
5259.67131,1.65452
5258.64162,1.65537
5257.61193,1.65618
5256.58223,1.65694
5255.55254,1.65761
5254.52285,1.65815
5253.49315,1.65860
5252.46346,1.65901
5251.43377,1.65937
5250.40407,1.65966
5249.37438,1.65994
5248.34469,1.66025
5247.31500,1.66057
5246.28530,1.66093
5245.25561,1.66126
5244.22592,1.66145
5243.19622,1.66156
5242.16653,1.66167
5241.13684,1.66180
5240.10715,1.66193
5239.07745,1.66210
5238.04776,1.66240
5237.01807,1.66291
5235.98837,1.66366
5234.95868,1.66457
5233.92899,1.66555
5232.89930,1.66657
5231.86960,1.66763
5230.83991,1.66872
5229.81022,1.66986
5228.78052,1.67103
5227.75083,1.67214
5226.72114,1.67310
5225.69145,1.67393
5224.66175,1.67463
5223.63206,1.67514
5222.60237,1.67538
5221.57267,1.67537
5220.54298,1.67513
5219.51329,1.67471
5218.48360,1.67419
5217.45390,1.67366
5216.42421,1.67315
5215.39452,1.67268
5214.36482,1.67230
5213.33513,1.67206
5212.30544,1.67201
5211.27574,1.67207
5210.24605,1.67215
5209.21636,1.67223
5208.18667,1.67234
5207.15697,1.67257
5206.12728,1.67292
5205.09759,1.67336
5204.06789,1.67376
5203.03820,1.67408
5202.00851,1.67432
5200.97882,1.67446
5199.94912,1.67447
5198.91943,1.67433
5197.88974,1.67412
5196.86004,1.67395
5195.83035,1.67387
5194.80066,1.67389
5193.77097,1.67400
5192.74127,1.67416
5191.71158,1.67434
5190.68189,1.67452
5189.65219,1.67475
5188.62250,1.67504
5187.59281,1.67537
5186.56312,1.67575
5185.53342,1.67621
5184.50373,1.67684
5183.47404,1.67769
5182.44434,1.67881
5181.41465,1.68014
5180.38496,1.68161
5179.35527,1.68319
5178.32557,1.68483
5177.29588,1.68645
5176.26619,1.68800
5175.23649,1.68948
5174.20680,1.69094
5173.17711,1.69237
5172.14741,1.69369
5171.11772,1.69478
5170.08803,1.69556
5169.05834,1.69593
5168.02864,1.69585
5166.99895,1.69539
5165.96926,1.69462
5164.93956,1.69359
5163.90987,1.69232
5162.88018,1.69089
5161.85049,1.68940
5160.82079,1.68792
5159.79110,1.68651
5158.76141,1.68518
5157.73171,1.68396
5156.70202,1.68294
5155.67233,1.68208
5154.64264,1.68137
5153.61294,1.68078
5152.58325,1.68033
5151.55356,1.68008
5150.52386,1.68007
5149.49417,1.68025
5148.46448,1.68054
5147.43479,1.68084
5146.40509,1.68115
5145.37540,1.68143
5144.34571,1.68167
5143.31601,1.68189
5142.28632,1.68210
5141.25663,1.68229
5140.22694,1.68246
5139.19724,1.68265
5138.16755,1.68290
5137.13786,1.68317
5136.10816,1.68344
5135.07847,1.68370
5134.04878,1.68390
5133.01908,1.68406
5131.98939,1.68418
5130.95970,1.68419
5129.93001,1.68409
5128.90031,1.68389
5127.87062,1.68365
5126.84093,1.68340
5125.81123,1.68308
5124.78154,1.68265
5123.75185,1.68210
5122.72216,1.68152
5121.69246,1.68094
5120.66277,1.68040
5119.63308,1.67992
5118.60338,1.67951
5117.57369,1.67919
5116.54400,1.67898
5115.51431,1.67894
5114.48461,1.67904
5113.45492,1.67923
5112.42523,1.67944
5111.39553,1.67967
5110.36584,1.67991
5109.33615,1.68010
5108.30646,1.68027
5107.27676,1.68046
5106.24707,1.68063
5105.21738,1.68074
5104.18768,1.68073
5103.15799,1.68059
5102.12830,1.68028
5101.09861,1.67976
5100.06891,1.67909
5099.03922,1.67840
5098.00953,1.67775
5096.97983,1.67716
5095.95014,1.67662
5094.92045,1.67613
5093.89075,1.67568
5092.86106,1.67526
5091.83137,1.67491
5090.80168,1.67465
5089.77198,1.67449
5088.74229,1.67444
5087.71260,1.67449
5086.68290,1.67465
5085.65321,1.67494
5084.62352,1.67537
5083.59383,1.67596
5082.56413,1.67671
5081.53444,1.67753
5080.50475,1.67824
5079.47505,1.67877
5078.44536,1.67915
5077.41567,1.67945
5076.38598,1.67972
5075.35628,1.68002
5074.32659,1.68034
5073.29690,1.68056
5072.26720,1.68061
5071.23751,1.68050
5070.20782,1.68020
5069.17813,1.67970
5068.14843,1.67904
5067.11874,1.67823
5066.08905,1.67736
5065.05935,1.67649
5064.02966,1.67564
5062.99997,1.67478
5061.97027,1.67392
5060.94058,1.67314
5059.91089,1.67244
5058.88120,1.67180
5057.85150,1.67117
5056.82181,1.67046
5055.79212,1.66964
5054.76242,1.66880
5053.73273,1.66805
5052.70304,1.66746
5051.67335,1.66698
5050.64365,1.66654
5049.61396,1.66609
5048.58427,1.66560
5047.55457,1.66510
5046.52488,1.66463
5045.49519,1.66417
5044.46550,1.66374
5043.43580,1.66340
5042.40611,1.66324
5041.37642,1.66336
5040.34672,1.66374
5039.31703,1.66433
5038.28734,1.66509
5037.25765,1.66597
5036.22795,1.66699
5035.19826,1.66806
5034.16857,1.66910
5033.13887,1.67008
5032.10918,1.67097
5031.07949,1.67179
5030.04980,1.67249
5029.02010,1.67308
5027.99041,1.67354
5026.96072,1.67380
5025.93102,1.67389
5024.90133,1.67384
5023.87164,1.67364
5022.84194,1.67325
5021.81225,1.67267
5020.78256,1.67197
5019.75287,1.67119
5018.72317,1.67044
5017.69348,1.66974
5016.66379,1.66912
5015.63409,1.66856
5014.60440,1.66805
5013.57471,1.66755
5012.54502,1.66705
5011.51532,1.66658
5010.48563,1.66612
5009.45594,1.66570
5008.42624,1.66532
5007.39655,1.66502
5006.36686,1.66480
5005.33717,1.66463
5004.30747,1.66453
5003.27778,1.66451
5002.24809,1.66453
5001.21839,1.66459
5000.18870,1.66466
4999.15901,1.66470
4998.12932,1.66473
4997.09962,1.66480
4996.06993,1.66497
4995.04024,1.66520
4994.01054,1.66550
4992.98085,1.66590
4991.95116,1.66641
4990.92147,1.66700
4989.89177,1.66761
4988.86208,1.66820
4987.83239,1.66877
4986.80269,1.66933
4985.77300,1.66986
4984.74331,1.67035
4983.71361,1.67078
4982.68392,1.67109
4981.65423,1.67124
4980.62454,1.67118
4979.59484,1.67088
4978.56515,1.67036
4977.53546,1.66960
4976.50576,1.66865
4975.47607,1.66756
4974.44638,1.66638
4973.41669,1.66513
4972.38699,1.66383
4971.35730,1.66248
4970.32761,1.66113
4969.29791,1.65987
4968.26822,1.65882
4967.23853,1.65800
4966.20884,1.65741
4965.17914,1.65708
4964.14945,1.65700
4963.11976,1.65716
4962.09006,1.65757
4961.06037,1.65818
4960.03068,1.65894
4959.00099,1.65981
4957.97129,1.66073
4956.94160,1.66166
4955.91191,1.66258
4954.88221,1.66352
4953.85252,1.66449
4952.82283,1.66546
4951.79314,1.66638
4950.76344,1.66721
4949.73375,1.66786
4948.70406,1.66826
4947.67436,1.66835
4946.64467,1.66819
4945.61498,1.66780
4944.58528,1.66724
4943.55559,1.66656
4942.52590,1.66582
4941.49621,1.66505
4940.46651,1.66427
4939.43682,1.66342
4938.40713,1.66248
4937.37743,1.66147
4936.34774,1.66041
4935.31805,1.65931
4934.28836,1.65824
4933.25866,1.65726
4932.22897,1.65643
4931.19928,1.65581
4930.16958,1.65546
4929.13989,1.65536
4928.11020,1.65549
4927.08051,1.65581
4926.05081,1.65631
4925.02112,1.65691
4923.99143,1.65760
4922.96173,1.65836
4921.93204,1.65920
4920.90235,1.66014
4919.87266,1.66118
4918.84296,1.66231
4917.81327,1.66352
4916.78358,1.66471
4915.75388,1.66575
4914.72419,1.66650
4913.69450,1.66693
4912.66481,1.66702
4911.63511,1.66680
4910.60542,1.66629
4909.57573,1.66556
4908.54603,1.66467
4907.51634,1.66363
4906.48665,1.66244
4905.45695,1.66121
4904.42726,1.66007
4903.39757,1.65915
4902.36788,1.65845
4901.33818,1.65796
4900.30849,1.65773
4899.27880,1.65780
4898.24910,1.65823
4897.21941,1.65902
4896.18972,1.66013
4895.16003,1.66146
4894.13033,1.66293
4893.10064,1.66445
4892.07095,1.66589
4891.04125,1.66713
4890.01156,1.66810
4888.98187,1.66877
4887.95218,1.66916
4886.92248,1.66935
4885.89279,1.66935
4884.86310,1.66912
4883.83340,1.66868
4882.80371,1.66805
4881.77402,1.66734
4880.74433,1.66669
4879.71463,1.66621
4878.68494,1.66585
4877.65525,1.66558
4876.62555,1.66540
4875.59586,1.66540
4874.56617,1.66559
4873.53648,1.66593
4872.50678,1.66634
4871.47709,1.66676
4870.44740,1.66714
4869.41770,1.66748
4868.38801,1.66774
4867.35832,1.66791
4866.32862,1.66801
4865.29893,1.66805
4864.26924,1.66807
4863.23955,1.66812
4862.20985,1.66823
4861.18016,1.66834
4860.15047,1.66839
4859.12077,1.66840
4858.09108,1.66841
4857.06139,1.66845
4856.03170,1.66854
4855.00200,1.66869
4853.97231,1.66885
4852.94262,1.66901
4851.91292,1.66917
4850.88323,1.66933
4849.85354,1.66946
4848.82385,1.66955
4847.79415,1.66961
4846.76446,1.66965
4845.73477,1.66969
4844.70507,1.66975
4843.67538,1.66986
4842.64569,1.67006
4841.61600,1.67031
4840.58630,1.67060
4839.55661,1.67092
4838.52692,1.67130
4837.49722,1.67169
4836.46753,1.67199
4835.43784,1.67215
4834.40815,1.67217
4833.37845,1.67211
4832.34876,1.67199
4831.31907,1.67185
4830.28937,1.67170
4829.25968,1.67149
4828.22999,1.67126
4827.20029,1.67104
4826.17060,1.67087
4825.14091,1.67076
4824.11122,1.67071
4823.08152,1.67074
4822.05183,1.67090
4821.02214,1.67124
4819.99244,1.67174
4818.96275,1.67232
4817.93306,1.67294
4816.90337,1.67354
4815.87367,1.67411
4814.84398,1.67467
4813.81429,1.67516
4812.78459,1.67546
4811.75490,1.67549
4810.72521,1.67527
4809.69552,1.67486
4808.66582,1.67433
4807.63613,1.67370
4806.60644,1.67299
4805.57674,1.67220
4804.54705,1.67142
4803.51736,1.67072
4802.48767,1.67014
4801.45797,1.66963
4800.42828,1.66919
4799.39859,1.66887
4798.36889,1.66871
4797.33920,1.66874
4796.30951,1.66891
4795.27982,1.66915
4794.25012,1.66945
4793.22043,1.66984
4792.19074,1.67032
4791.16104,1.67088
4790.13135,1.67146
4789.10166,1.67197
4788.07196,1.67234
4787.04227,1.67256
4786.01258,1.67267
4784.98289,1.67273
4783.95319,1.67275
4782.92350,1.67275
4781.89381,1.67274
4780.86411,1.67279
4779.83442,1.67292
4778.80473,1.67307
4777.77504,1.67318
4776.74534,1.67321
4775.71565,1.67323
4774.68596,1.67329
4773.65626,1.67337
4772.62657,1.67346
4771.59688,1.67358
4770.56719,1.67379
4769.53749,1.67410
4768.50780,1.67449
4767.47811,1.67494
4766.44841,1.67541
4765.41872,1.67581
4764.38903,1.67607
4763.35934,1.67616
4762.32964,1.67614
4761.29995,1.67605
4760.27026,1.67592
4759.24056,1.67574
4758.21087,1.67554
4757.18118,1.67532
4756.15148,1.67505
4755.12179,1.67469
4754.09210,1.67418
4753.06241,1.67353
4752.03271,1.67282
4751.00302,1.67214
4749.97333,1.67151
4748.94363,1.67094
4747.91394,1.67049
4746.88425,1.67021
4745.85456,1.67013
4744.82486,1.67022
4743.79517,1.67041
4742.76548,1.67071
4741.73578,1.67106
4740.70609,1.67144
4739.67640,1.67181
4738.64671,1.67222
4737.61701,1.67267
4736.58732,1.67315
4735.55763,1.67361
4734.52793,1.67401
4733.49824,1.67437
4732.46855,1.67464
4731.43886,1.67477
4730.40916,1.67472
4729.37947,1.67448
4728.34978,1.67411
4727.32008,1.67364
4726.29039,1.67311
4725.26070,1.67255
4724.23101,1.67199
4723.20131,1.67144
4722.17162,1.67091
4721.14193,1.67043
4720.11223,1.66999
4719.08254,1.66964
4718.05285,1.66940
4717.02315,1.66932
4715.99346,1.66943
4714.96377,1.66971
4713.93408,1.67011
4712.90438,1.67062
4711.87469,1.67124
4710.84500,1.67197
4709.81530,1.67277
4708.78561,1.67359
4707.75592,1.67439
4706.72623,1.67514
4705.69653,1.67583
4704.66684,1.67646
4703.63715,1.67700
4702.60745,1.67745
4701.57776,1.67782
4700.54807,1.67806
4699.51838,1.67814
4698.48868,1.67808
4697.45899,1.67794
4696.42930,1.67778
4695.39960,1.67764
4694.36991,1.67753
4693.34022,1.67747
4692.31053,1.67745
4691.28083,1.67747
4690.25114,1.67748
4689.22145,1.67751
4688.19175,1.67758
4687.16206,1.67771
4686.13237,1.67787
4685.10268,1.67799
4684.07298,1.67804
4683.04329,1.67805
4682.01360,1.67808
4680.98390,1.67811
4679.95421,1.67811
4678.92452,1.67807
4677.89482,1.67801
4676.86513,1.67790
4675.83544,1.67773
4674.80575,1.67753
4673.77605,1.67736
4672.74636,1.67721
4671.71667,1.67710
4670.68697,1.67701
4669.65728,1.67694
4668.62759,1.67688
4667.59790,1.67689
4666.56820,1.67696
4665.53851,1.67710
4664.50882,1.67730
4663.47912,1.67754
4662.44943,1.67779
4661.41974,1.67801
4660.39005,1.67818
4659.36035,1.67831
4658.33066,1.67845
4657.30097,1.67862
4656.27127,1.67882
4655.24158,1.67905
4654.21189,1.67931
4653.18220,1.67961
4652.15250,1.67988
4651.12281,1.68012
4650.09312,1.68031
4649.06342,1.68043
4648.03373,1.68047
4647.00404,1.68045
4645.97435,1.68036
4644.94465,1.68021
4643.91496,1.68001
4642.88527,1.67978
4641.85557,1.67954
4640.82588,1.67924
4639.79619,1.67888
4638.76649,1.67848
4637.73680,1.67805
4636.70711,1.67760
4635.67742,1.67717
4634.64772,1.67680
4633.61803,1.67652
4632.58834,1.67634
4631.55864,1.67625
4630.52895,1.67623
4629.49926,1.67628
4628.46957,1.67634
4627.43987,1.67639
4626.41018,1.67641
4625.38049,1.67643
4624.35079,1.67645
4623.32110,1.67647
4622.29141,1.67648
4621.26172,1.67646
4620.23202,1.67643
4619.20233,1.67642
4618.17264,1.67642
4617.14294,1.67643
4616.11325,1.67643
4615.08356,1.67645
4614.05387,1.67653
4613.02417,1.67664
4611.99448,1.67676
4610.96479,1.67688
4609.93509,1.67700
4608.90540,1.67709
4607.87571,1.67715
4606.84602,1.67718
4605.81632,1.67716
4604.78663,1.67708
4603.75694,1.67695
4602.72724,1.67679
4601.69755,1.67661
4600.66786,1.67642
4599.63816,1.67623
4598.60847,1.67605
4597.57878,1.67591
4596.54909,1.67580
4595.51939,1.67575
4594.48970,1.67577
4593.46001,1.67584
4592.43031,1.67594
4591.40062,1.67610
4590.37093,1.67631
4589.34124,1.67654
4588.31154,1.67671
4587.28185,1.67680
4586.25216,1.67683
4585.22246,1.67681
4584.19277,1.67678
4583.16308,1.67673
4582.13339,1.67664
4581.10369,1.67651
4580.07400,1.67633
4579.04431,1.67615
4578.01461,1.67598
4576.98492,1.67580
4575.95523,1.67561
4574.92554,1.67546
4573.89584,1.67537
4572.86615,1.67535
4571.83646,1.67539
4570.80676,1.67552
4569.77707,1.67569
4568.74738,1.67589
4567.71769,1.67609
4566.68799,1.67630
4565.65830,1.67649
4564.62861,1.67665
4563.59891,1.67676
4562.56922,1.67682
4561.53953,1.67682
4560.50983,1.67680
4559.48014,1.67674
4558.45045,1.67662
4557.42076,1.67644
4556.39106,1.67622
4555.36137,1.67602
4554.33168,1.67585
4553.30198,1.67569
4552.27229,1.67558
4551.24260,1.67553
4550.21291,1.67556
4549.18321,1.67567
4548.15352,1.67582
4547.12383,1.67599
4546.09413,1.67615
4545.06444,1.67627
4544.03475,1.67632
4543.00506,1.67631
4541.97536,1.67629
4540.94567,1.67625
4539.91598,1.67615
4538.88628,1.67595
4537.85659,1.67564
4536.82690,1.67525
4535.79721,1.67481
4534.76751,1.67434
4533.73782,1.67383
4532.70813,1.67331
4531.67843,1.67284
4530.64874,1.67243
4529.61905,1.67210
4528.58936,1.67187
4527.55966,1.67175
4526.52997,1.67172
4525.50028,1.67176
4524.47058,1.67186
4523.44089,1.67199
4522.41120,1.67215
4521.38150,1.67235
4520.35181,1.67259
4519.32212,1.67284
4518.29243,1.67310
4517.26273,1.67335
4516.23304,1.67355
4515.20335,1.67369
4514.17365,1.67376
4513.14396,1.67378
4512.11427,1.67378
4511.08458,1.67377
4510.05488,1.67370
4509.02519,1.67355
4507.99550,1.67334
4506.96580,1.67312
4505.93611,1.67290
4504.90642,1.67266
4503.87673,1.67245
4502.84703,1.67224
4501.81734,1.67203
4500.78765,1.67186
4499.75795,1.67175
4498.72826,1.67172
4497.69857,1.67177
4496.66888,1.67190
4495.63918,1.67206
4494.60949,1.67223
4493.57980,1.67238
4492.55010,1.67252
4491.52041,1.67268
4490.49072,1.67285
4489.46103,1.67304
4488.43133,1.67325
4487.40164,1.67348
4486.37195,1.67370
4485.34225,1.67388
4484.31256,1.67403
4483.28287,1.67420
4482.25317,1.67442
4481.22348,1.67466
4480.19379,1.67495
4479.16410,1.67529
4478.13440,1.67568
4477.10471,1.67614
4476.07502,1.67667
4475.04532,1.67727
4474.01563,1.67791
4472.98594,1.67857
4471.95625,1.67921
4470.92655,1.67982
4469.89686,1.68035
4468.86717,1.68080
4467.83747,1.68120
4466.80778,1.68156
4465.77809,1.68189
4464.74840,1.68218
4463.71870,1.68244
4462.68901,1.68268
4461.65932,1.68291
4460.62962,1.68312
4459.59993,1.68338
4458.57024,1.68369
4457.54055,1.68406
4456.51085,1.68449
4455.48116,1.68498
4454.45147,1.68554
4453.42177,1.68617
4452.39208,1.68683
4451.36239,1.68751
4450.33269,1.68821
4449.30300,1.68891
4448.27331,1.68960
4447.24362,1.69026
4446.21392,1.69088
4445.18423,1.69147
4444.15454,1.69204
4443.12484,1.69262
4442.09515,1.69321
4441.06546,1.69382
4440.03577,1.69445
4439.00607,1.69510
4437.97638,1.69578
4436.94669,1.69650
4435.91699,1.69727
4434.88730,1.69810
4433.85761,1.69896
4432.82792,1.69982
4431.79822,1.70068
4430.76853,1.70152
4429.73884,1.70233
4428.70914,1.70306
4427.67945,1.70369
4426.64976,1.70423
4425.62007,1.70474
4424.59037,1.70521
4423.56068,1.70563
4422.53099,1.70602
4421.50129,1.70642
4420.47160,1.70687
4419.44191,1.70736
4418.41222,1.70792
4417.38252,1.70856
4416.35283,1.70927
4415.32314,1.71005
4414.29344,1.71087
4413.26375,1.71176
4412.23406,1.71272
4411.20436,1.71371
4410.17467,1.71471
4409.14498,1.71570
4408.11529,1.71663
4407.08559,1.71747
4406.05590,1.71822
4405.02621,1.71884
4403.99651,1.71932
4402.96682,1.71968
4401.93713,1.71998
4400.90744,1.72023
4399.87774,1.72041
4398.84805,1.72054
4397.81836,1.72070
4396.78866,1.72093
4395.75897,1.72125
4394.72928,1.72162
4393.69959,1.72206
4392.66989,1.72255
4391.64020,1.72311
4390.61051,1.72372
4389.58081,1.72438
4388.55112,1.72507
4387.52143,1.72576
4386.49174,1.72642
4385.46204,1.72703
4384.43235,1.72757
4383.40266,1.72802
4382.37296,1.72836
4381.34327,1.72862
4380.31358,1.72878
4379.28389,1.72885
4378.25419,1.72885
4377.22450,1.72882
4376.19481,1.72878
4375.16511,1.72877
4374.13542,1.72882
4373.10573,1.72898
4372.07603,1.72921
4371.04634,1.72951
4370.01665,1.72989
4368.98696,1.73038
4367.95726,1.73099
4366.92757,1.73169
4365.89788,1.73245
4364.86818,1.73322
4363.83849,1.73396
4362.80880,1.73465
4361.77911,1.73530
4360.74941,1.73591
4359.71972,1.73649
4358.69003,1.73703
4357.66033,1.73753
4356.63064,1.73796
4355.60095,1.73827
4354.57126,1.73851
4353.54156,1.73873
4352.51187,1.73898
4351.48218,1.73926
4350.45248,1.73958
4349.42279,1.73992
4348.39310,1.74025
4347.36341,1.74058
4346.33371,1.74093
4345.30402,1.74133
4344.27433,1.74177
4343.24463,1.74221
4342.21494,1.74261
4341.18525,1.74296
4340.15556,1.74326
4339.12586,1.74352
4338.09617,1.74375
4337.06648,1.74398
4336.03678,1.74422
4335.00709,1.74443
4333.97740,1.74459
4332.94770,1.74467
4331.91801,1.74468
4330.88832,1.74464
4329.85863,1.74461
4328.82893,1.74459
4327.79924,1.74456
4326.76955,1.74449
4325.73985,1.74435
4324.71016,1.74411
4323.68047,1.74376
4322.65078,1.74330
4321.62108,1.74277
4320.59139,1.74216
4319.56170,1.74145
4318.53200,1.74065
4317.50231,1.73980
4316.47262,1.73892
4315.44293,1.73806
4314.41323,1.73724
4313.38354,1.73649
4312.35385,1.73583
4311.32415,1.73525
4310.29446,1.73472
4309.26477,1.73427
4308.23508,1.73392
4307.20538,1.73369
4306.17569,1.73354
4305.14600,1.73343
4304.11630,1.73334
4303.08661,1.73327
4302.05692,1.73319
4301.02723,1.73308
4299.99753,1.73291
4298.96784,1.73268
4297.93815,1.73238
4296.90845,1.73201
4295.87876,1.73157
4294.84907,1.73109
4293.81937,1.73061
4292.78968,1.73017
4291.75999,1.72980
4290.73030,1.72954
4289.70060,1.72942
4288.67091,1.72941
4287.64122,1.72949
4286.61152,1.72964
4285.58183,1.72989
4284.55214,1.73024
4283.52245,1.73067
4282.49275,1.73115
4281.46306,1.73165
4280.43337,1.73218
4279.40367,1.73274
4278.37398,1.73334
4277.34429,1.73393
4276.31460,1.73447
4275.28490,1.73493
4274.25521,1.73531
4273.22552,1.73560
4272.19582,1.73584
4271.16613,1.73606
4270.13644,1.73627
4269.10675,1.73649
4268.07705,1.73673
4267.04736,1.73699
4266.01767,1.73726
4264.98797,1.73752
4263.95828,1.73776
4262.92859,1.73798
4261.89890,1.73818
4260.86920,1.73835
4259.83951,1.73849
4258.80982,1.73860
4257.78012,1.73869
4256.75043,1.73877
4255.72074,1.73881
4254.69104,1.73880
4253.66135,1.73870
4252.63166,1.73847
4251.60197,1.73811
4250.57227,1.73763
4249.54258,1.73706
4248.51289,1.73640
4247.48319,1.73567
4246.45350,1.73491
4245.42381,1.73410
4244.39412,1.73329
4243.36442,1.73247
4242.33473,1.73166
4241.30504,1.73090
4240.27534,1.73023
4239.24565,1.72965
4238.21596,1.72915
4237.18627,1.72872
4236.15657,1.72836
4235.12688,1.72812
4234.09719,1.72802
4233.06749,1.72802
4232.03780,1.72809
4231.00811,1.72818
4229.97842,1.72828
4228.94872,1.72837
4227.91903,1.72842
4226.88934,1.72842
4225.85964,1.72834
4224.82995,1.72818
4223.80026,1.72797
4222.77057,1.72772
4221.74087,1.72747
4220.71118,1.72723
4219.68149,1.72702
4218.65179,1.72684
4217.62210,1.72672
4216.59241,1.72669
4215.56271,1.72676
4214.53302,1.72690
4213.50333,1.72711
4212.47364,1.72741
4211.44394,1.72783
4210.41425,1.72834
4209.38456,1.72893
4208.35486,1.72956
4207.32517,1.73019
4206.29548,1.73081
4205.26579,1.73138
4204.23609,1.73187
4203.20640,1.73225
4202.17671,1.73249
4201.14701,1.73263
4200.11732,1.73270
4199.08763,1.73271
4198.05794,1.73267
4197.02824,1.73256
4195.99855,1.73238
4194.96886,1.73216
4193.93916,1.73193
4192.90947,1.73171
4191.87978,1.73154
4190.85009,1.73144
4189.82039,1.73142
4188.79070,1.73150
4187.76101,1.73168
4186.73131,1.73191
4185.70162,1.73219
4184.67193,1.73250
4183.64224,1.73284
4182.61254,1.73319
4181.58285,1.73354
4180.55316,1.73384
4179.52346,1.73409
4178.49377,1.73428
4177.46408,1.73444
4176.43438,1.73455
4175.40469,1.73458
4174.37500,1.73452
4173.34531,1.73434
4172.31561,1.73409
4171.28592,1.73379
4170.25623,1.73346
4169.22653,1.73315
4168.19684,1.73287
4167.16715,1.73265
4166.13746,1.73252
4165.10776,1.73247
4164.07807,1.73248
4163.04838,1.73252
4162.01868,1.73258
4160.98899,1.73270
4159.95930,1.73290
4158.92961,1.73320
4157.89991,1.73356
4156.87022,1.73397
4155.84053,1.73438
4154.81083,1.73481
4153.78114,1.73524
4152.75145,1.73567
4151.72176,1.73609
4150.69206,1.73646
4149.66237,1.73680
4148.63268,1.73707
4147.60298,1.73728
4146.57329,1.73742
4145.54360,1.73748
4144.51390,1.73751
4143.48421,1.73752
4142.45452,1.73751
4141.42483,1.73751
4140.39513,1.73752
4139.36544,1.73751
4138.33575,1.73749
4137.30605,1.73750
4136.27636,1.73757
4135.24667,1.73767
4134.21698,1.73779
4133.18728,1.73791
4132.15759,1.73802
4131.12790,1.73814
4130.09820,1.73827
4129.06851,1.73843
4128.03882,1.73862
4127.00913,1.73884
4125.97943,1.73904
4124.94974,1.73920
4123.92005,1.73929
4122.89035,1.73934
4121.86066,1.73938
4120.83097,1.73943
4119.80128,1.73950
4118.77158,1.73958
4117.74189,1.73968
4116.71220,1.73981
4115.68250,1.74000
4114.65281,1.74022
4113.62312,1.74048
4112.59343,1.74074
4111.56373,1.74100
4110.53404,1.74124
4109.50435,1.74147
4108.47465,1.74171
4107.44496,1.74195
4106.41527,1.74218
4105.38557,1.74241
4104.35588,1.74264
4103.32619,1.74288
4102.29650,1.74311
4101.26680,1.74331
4100.23711,1.74347
4099.20742,1.74361
4098.17772,1.74373
4097.14803,1.74385
4096.11834,1.74396
4095.08865,1.74407
4094.05895,1.74417
4093.02926,1.74429
4091.99957,1.74444
4090.96987,1.74465
4089.94018,1.74489
4088.91049,1.74514
4087.88080,1.74538
4086.85110,1.74563
4085.82141,1.74590
4084.79172,1.74619
4083.76202,1.74648
4082.73233,1.74676
4081.70264,1.74703
4080.67295,1.74729
4079.64325,1.74756
4078.61356,1.74782
4077.58387,1.74806
4076.55417,1.74826
4075.52448,1.74840
4074.49479,1.74848
4073.46510,1.74850
4072.43540,1.74851
4071.40571,1.74852
4070.37602,1.74852
4069.34632,1.74854
4068.31663,1.74860
4067.28694,1.74874
4066.25724,1.74897
4065.22755,1.74925
4064.19786,1.74957
4063.16817,1.74994
4062.13847,1.75039
4061.10878,1.75095
4060.07909,1.75158
4059.04939,1.75228
4058.01970,1.75303
4056.99001,1.75380
4055.96032,1.75455
4054.93062,1.75529
4053.90093,1.75598
4052.87124,1.75659
4051.84154,1.75707
4050.81185,1.75738
4049.78216,1.75752
4048.75247,1.75750
4047.72277,1.75735
4046.69308,1.75711
4045.66339,1.75678
4044.63369,1.75638
4043.60400,1.75593
4042.57431,1.75544
4041.54462,1.75493
4040.51492,1.75442
4039.48523,1.75395
4038.45554,1.75358
4037.42584,1.75337
4036.39615,1.75333
4035.36646,1.75344
4034.33677,1.75370
4033.30707,1.75409
4032.27738,1.75457
4031.24769,1.75515
4030.21799,1.75582
4029.18830,1.75653
4028.15861,1.75722
4027.12891,1.75784
4026.09922,1.75837
4025.06953,1.75879
4024.03984,1.75913
4023.01014,1.75940
4021.98045,1.75958
4020.95076,1.75962
4019.92106,1.75950
4018.89137,1.75924
4017.86168,1.75890
4016.83199,1.75851
4015.80229,1.75811
4014.77260,1.75772
4013.74291,1.75739
4012.71321,1.75712
4011.68352,1.75693
4010.65383,1.75683
4009.62414,1.75681
4008.59444,1.75689
4007.56475,1.75705
4006.53506,1.75729
4005.50536,1.75757
4004.47567,1.75786
4003.44598,1.75815
4002.41629,1.75839
4001.38659,1.75856
4000.35690,1.75866
3999.32721,1.75873
3998.29751,1.75873
3997.26782,1.75862
3996.23813,1.75839
3995.20844,1.75809
3994.17874,1.75777
3993.14905,1.75744
3992.11936,1.75712
3991.08966,1.75683
3990.05997,1.75659
3989.03028,1.75639
3988.00058,1.75627
3986.97089,1.75624
3985.94120,1.75631
3984.91151,1.75647
3983.88181,1.75674
3982.85212,1.75709
3981.82243,1.75749
3980.79273,1.75794
3979.76304,1.75841
3978.73335,1.75888
3977.70366,1.75932
3976.67396,1.75974
3975.64427,1.76013
3974.61458,1.76047
3973.58488,1.76074
3972.55519,1.76092
3971.52550,1.76102
3970.49581,1.76107
3969.46611,1.76107
3968.43642,1.76104
3967.40673,1.76099
3966.37703,1.76093
3965.34734,1.76086
3964.31765,1.76079
3963.28796,1.76075
3962.25826,1.76075
3961.22857,1.76081
3960.19888,1.76093
3959.16918,1.76109
3958.13949,1.76125
3957.10980,1.76139
3956.08011,1.76153
3955.05041,1.76170
3954.02072,1.76190
3952.99103,1.76211
3951.96133,1.76232
3950.93164,1.76250
3949.90195,1.76260
3948.87225,1.76261
3947.84256,1.76253
3946.81287,1.76242
3945.78318,1.76230
3944.75348,1.76216
3943.72379,1.76200
3942.69410,1.76180
3941.66440,1.76157
3940.63471,1.76131
3939.60502,1.76105
3938.57533,1.76082
3937.54563,1.76060
3936.51594,1.76037
3935.48625,1.76012
3934.45655,1.75981
3933.42686,1.75944
3932.39717,1.75905
3931.36748,1.75866
3930.33778,1.75830
3929.30809,1.75791
3928.27840,1.75744
3927.24870,1.75690
3926.21901,1.75626
3925.18932,1.75553
3924.15963,1.75475
3923.12993,1.75399
3922.10024,1.75331
3921.07055,1.75271
3920.04085,1.75216
3919.01116,1.75164
3917.98147,1.75119
3916.95178,1.75079
3915.92208,1.75045
3914.89239,1.75017
3913.86270,1.74998
3912.83300,1.74987
3911.80331,1.74984
3910.77362,1.74986
3909.74392,1.74987
3908.71423,1.74984
3907.68454,1.74979
3906.65485,1.74974
3905.62515,1.74964
3904.59546,1.74940
3903.56577,1.74905
3902.53607,1.74865
3901.50638,1.74822
3900.47669,1.74777
3899.44700,1.74732
3898.41730,1.74685
3897.38761,1.74640
3896.35792,1.74600
3895.32822,1.74566
3894.29853,1.74534
3893.26884,1.74504
3892.23915,1.74476
3891.20945,1.74452
3890.17976,1.74439
3889.15007,1.74438
3888.12037,1.74448
3887.09068,1.74465
3886.06099,1.74480
3885.03130,1.74490
3884.00160,1.74506
3882.97191,1.74530
3881.94222,1.74556
3880.91252,1.74572
3879.88283,1.74580
3878.85314,1.74589
3877.82344,1.74586
3876.79375,1.74565
3875.76406,1.74530
3874.73437,1.74487
3873.70467,1.74440
3872.67498,1.74403
3871.64529,1.74378
3870.61559,1.74360
3869.58590,1.74345
3868.55621,1.74337
3867.52652,1.74340
3866.49682,1.74355
3865.46713,1.74380
3864.43744,1.74409
3863.40774,1.74445
3862.37805,1.74487
3861.34836,1.74529
3860.31867,1.74579
3859.28897,1.74637
3858.25928,1.74693
3857.22959,1.74738
3856.19989,1.74769
3855.17020,1.74787
3854.14051,1.74780
3853.11082,1.74742
3852.08112,1.74694
3851.05143,1.74650
3850.02174,1.74614
3848.99204,1.74585
3847.96235,1.74566
3846.93266,1.74556
3845.90297,1.74545
3844.87327,1.74525
3843.84358,1.74501
3842.81389,1.74481
3841.78419,1.74471
3840.75450,1.74463
3839.72481,1.74455
3838.69511,1.74453
3837.66542,1.74457
3836.63573,1.74469
3835.60604,1.74491
3834.57634,1.74517
3833.54665,1.74544
3832.51696,1.74571
3831.48726,1.74587
3830.45757,1.74590
3829.42788,1.74585
3828.39819,1.74584
3827.36849,1.74594
3826.33880,1.74602
3825.30911,1.74601
3824.27941,1.74594
3823.24972,1.74590
3822.22003,1.74586
3821.19034,1.74570
3820.16064,1.74549
3819.13095,1.74544
3818.10126,1.74562
3817.07156,1.74594
3816.04187,1.74628
3815.01218,1.74666
3813.98249,1.74722
3812.95279,1.74793
3811.92310,1.74872
3810.89341,1.74950
3809.86371,1.75020
3808.83402,1.75079
3807.80433,1.75119
3806.77464,1.75138
3805.74494,1.75147
3804.71525,1.75154
3803.68556,1.75150
3802.65586,1.75123
3801.62617,1.75070
3800.59648,1.75007
3799.56678,1.74955
3798.53709,1.74919
3797.50740,1.74891
3796.47771,1.74868
3795.44801,1.74860
3794.41832,1.74872
3793.38863,1.74893
3792.35893,1.74920
3791.32924,1.74956
3790.29955,1.75006
3789.26986,1.75063
3788.24016,1.75121
3787.21047,1.75174
3786.18078,1.75222
3785.15108,1.75261
3784.12139,1.75291
3783.09170,1.75314
3782.06201,1.75337
3781.03231,1.75360
3780.00262,1.75377
3778.97293,1.75383
3777.94323,1.75385
3776.91354,1.75391
3775.88385,1.75408
3774.85416,1.75437
3773.82446,1.75467
3772.79477,1.75493
3771.76508,1.75521
3770.73538,1.75558
3769.70569,1.75601
3768.67600,1.75640
3767.64631,1.75684
3766.61661,1.75741
3765.58692,1.75805
3764.55723,1.75877
3763.52753,1.75961
3762.49784,1.76056
3761.46815,1.76159
3760.43845,1.76262
3759.40876,1.76355
3758.37907,1.76446
3757.34938,1.76539
3756.31968,1.76629
3755.28999,1.76714
3754.26030,1.76800
3753.23060,1.76883
3752.20091,1.76954
3751.17122,1.77006
3750.14153,1.77041
3749.11183,1.77062
3748.08214,1.77080
3747.05245,1.77101
3746.02275,1.77117
3744.99306,1.77115
3743.96337,1.77093
3742.93368,1.77083
3741.90398,1.77091
3740.87429,1.77111
3739.84460,1.77145
3738.81490,1.77192
3737.78521,1.77249
3736.75552,1.77302
3735.72583,1.77342
3734.69613,1.77376
3733.66644,1.77420
3732.63675,1.77476
3731.60705,1.77541
3730.57736,1.77620
3729.54767,1.77711
3728.51798,1.77808
3727.48828,1.77904
3726.45859,1.77996
3725.42890,1.78084
3724.39920,1.78173
3723.36951,1.78265
3722.33982,1.78350
3721.31012,1.78423
3720.28043,1.78494
3719.25074,1.78576
3718.22105,1.78679
3717.19135,1.78794
3716.16166,1.78912
3715.13197,1.79028
3714.10227,1.79142
3713.07258,1.79246
3712.04289,1.79336
3711.01320,1.79424
3709.98350,1.79528
3708.95381,1.79653
3707.92412,1.79799
3706.89442,1.79965
3705.86473,1.80146
3704.83504,1.80334
3703.80535,1.80520
3702.77565,1.80700
3701.74596,1.80874
3700.71627,1.81043
3699.68657,1.81205
3698.65688,1.81359
3697.62719,1.81513
3696.59750,1.81676
3695.56780,1.81846
3694.53811,1.82014
3693.50842,1.82176
3692.47872,1.82331
3691.44903,1.82483
3690.41934,1.82635
3689.38965,1.82793
3688.35995,1.82959
3687.33026,1.83138
3686.30057,1.83341
3685.27087,1.83563
3684.24118,1.83794
3683.21149,1.84027
3682.18179,1.84258
3681.15210,1.84479
3680.12241,1.84681
3679.09272,1.84865
3678.06302,1.85038
3677.03333,1.85202
3676.00364,1.85353
3674.97394,1.85480
3673.94425,1.85599
3672.91456,1.85721
3671.88487,1.85840
3670.85517,1.85949
3669.82548,1.86051
3668.79579,1.86164
3667.76609,1.86298
3666.73640,1.86455
3665.70671,1.86633
3664.67702,1.86829
3663.64732,1.87040
3662.61763,1.87264
3661.58794,1.87492
3660.55824,1.87718
3659.52855,1.87938
3658.49886,1.88150
3657.46917,1.88348
3656.43947,1.88524
3655.40978,1.88683
3654.38009,1.88836
3653.35039,1.88975
3652.32070,1.89093
3651.29101,1.89186
3650.26132,1.89258
3649.23162,1.89329
3648.20193,1.89406
3647.17224,1.89486
3646.14254,1.89571
3645.11285,1.89671
3644.08316,1.89782
3643.05346,1.89896
3642.02377,1.90006
3640.99408,1.90116
3639.96439,1.90230
3638.93469,1.90348
3637.90500,1.90464
3636.87531,1.90575
3635.84561,1.90685
3634.81592,1.90793
3633.78623,1.90893
3632.75654,1.90984
3631.72684,1.91070
3630.69715,1.91155
3629.66746,1.91232
3628.63776,1.91290
3627.60807,1.91345
3626.57838,1.91411
3625.54869,1.91491
3624.51899,1.91586
3623.48930,1.91690
3622.45961,1.91794
3621.42991,1.91893
3620.40022,1.91984
3619.37053,1.92061
3618.34084,1.92131
3617.31114,1.92201
3616.28145,1.92275
3615.25176,1.92348
3614.22206,1.92411
3613.19237,1.92460
3612.16268,1.92492
3611.13299,1.92513
3610.10329,1.92525
3609.07360,1.92530
3608.04391,1.92533
3607.01421,1.92536
3605.98452,1.92540
3604.95483,1.92544
3603.92513,1.92551
3602.89544,1.92568
3601.86575,1.92592
3600.83606,1.92616
3599.80636,1.92636
3598.77667,1.92655
3597.74698,1.92670
3596.71728,1.92682
3595.68759,1.92693
3594.65790,1.92709
3593.62821,1.92731
3592.59851,1.92758
3591.56882,1.92781
3590.53913,1.92792
3589.50943,1.92793
3588.47974,1.92785
3587.45005,1.92778
3586.42036,1.92783
3585.39066,1.92809
3584.36097,1.92853
3583.33128,1.92912
3582.30158,1.92984
3581.27189,1.93064
3580.24220,1.93148
3579.21251,1.93232
3578.18281,1.93320
3577.15312,1.93411
3576.12343,1.93502
3575.09373,1.93590
3574.06404,1.93670
3573.03435,1.93741
3572.00465,1.93803
3570.97496,1.93857
3569.94527,1.93900
3568.91558,1.93928
3567.88588,1.93934
3566.85619,1.93919
3565.82650,1.93889
3564.79680,1.93858
3563.76711,1.93832
3562.73742,1.93815
3561.70773,1.93810
3560.67803,1.93815
3559.64834,1.93830
3558.61865,1.93855
3557.58895,1.93894
3556.55926,1.93946
3555.52957,1.94011
3554.49988,1.94090
3553.47018,1.94182
3552.44049,1.94282
3551.41080,1.94385
3550.38110,1.94486
3549.35141,1.94584
3548.32172,1.94679
3547.29203,1.94767
3546.26233,1.94840
3545.23264,1.94895
3544.20295,1.94930
3543.17325,1.94946
3542.14356,1.94948
3541.11387,1.94937
3540.08418,1.94915
3539.05448,1.94879
3538.02479,1.94830
3536.99510,1.94771
3535.96540,1.94706
3534.93571,1.94638
3533.90602,1.94571
3532.87632,1.94510
3531.84663,1.94456
3530.81694,1.94411
3529.78725,1.94375
3528.75755,1.94349
3527.72786,1.94334
3526.69817,1.94329
3525.66847,1.94339
3524.63878,1.94363
3523.60909,1.94398
3522.57940,1.94438
3521.54970,1.94483
3520.52001,1.94531
3519.49032,1.94582
3518.46062,1.94632
3517.43093,1.94679
3516.40124,1.94718
3515.37155,1.94750
3514.34185,1.94778
3513.31216,1.94802
3512.28247,1.94814
3511.25277,1.94814
3510.22308,1.94803
3509.19339,1.94785
3508.16370,1.94763
3507.13400,1.94736
3506.10431,1.94701
3505.07462,1.94662
3504.04492,1.94623
3503.01523,1.94588
3501.98554,1.94558
3500.95585,1.94535
3499.92615,1.94518
3498.89646,1.94503
3497.86677,1.94493
3496.83707,1.94488
3495.80738,1.94488
3494.77769,1.94491
3493.74799,1.94500
3492.71830,1.94515
3491.68861,1.94534
3490.65892,1.94556
3489.62922,1.94578
3488.59953,1.94594
3487.56984,1.94598
3486.54014,1.94592
3485.51045,1.94579
3484.48076,1.94562
3483.45107,1.94542
3482.42137,1.94517
3481.39168,1.94488
3480.36199,1.94458
3479.33229,1.94434
3478.30260,1.94415
3477.27291,1.94402
3476.24322,1.94392
3475.21352,1.94385
3474.18383,1.94383
3473.15414,1.94388
3472.12444,1.94400
3471.09475,1.94420
3470.06506,1.94448
3469.03537,1.94481
3468.00567,1.94519
3466.97598,1.94557
3465.94629,1.94591
3464.91659,1.94621
3463.88690,1.94644
3462.85721,1.94661
3461.82752,1.94673
3460.79782,1.94682
3459.76813,1.94688
3458.73844,1.94690
3457.70874,1.94686
3456.67905,1.94677
3455.64936,1.94665
3454.61966,1.94652
3453.58997,1.94637
3452.56028,1.94618
3451.53059,1.94593
3450.50089,1.94563
3449.47120,1.94529
3448.44151,1.94493
3447.41181,1.94455
3446.38212,1.94416
3445.35243,1.94376
3444.32274,1.94337
3443.29304,1.94300
3442.26335,1.94264
3441.23366,1.94231
3440.20396,1.94200
3439.17427,1.94173
3438.14458,1.94149
3437.11489,1.94131
3436.08519,1.94116
3435.05550,1.94105
3434.02581,1.94097
3432.99611,1.94092
3431.96642,1.94091
3430.93673,1.94095
3429.90704,1.94102
3428.87734,1.94113
3427.84765,1.94124
3426.81796,1.94134
3425.78826,1.94145
3424.75857,1.94157
3423.72888,1.94170
3422.69919,1.94183
3421.66949,1.94198
3420.63980,1.94213
3419.61011,1.94228
3418.58041,1.94238
3417.55072,1.94242
3416.52103,1.94238
3415.49133,1.94227
3414.46164,1.94210
3413.43195,1.94188
3412.40226,1.94162
3411.37256,1.94134
3410.34287,1.94107
3409.31318,1.94082
3408.28348,1.94059
3407.25379,1.94037
3406.22410,1.94017
3405.19441,1.94001
3404.16471,1.93991
3403.13502,1.93985
3402.10533,1.93985
3401.07563,1.93990
3400.04594,1.94001
3399.01625,1.94017
3397.98656,1.94038
3396.95686,1.94061
3395.92717,1.94082
3394.89748,1.94100
3393.86778,1.94111
3392.83809,1.94114
3391.80840,1.94110
3390.77871,1.94103
3389.74901,1.94094
3388.71932,1.94083
3387.68963,1.94073
3386.65993,1.94064
3385.63024,1.94059
3384.60055,1.94056
3383.57086,1.94051
3382.54116,1.94044
3381.51147,1.94034
3380.48178,1.94023
3379.45208,1.94014
3378.42239,1.94007
3377.39270,1.94000
3376.36300,1.93995
3375.33331,1.93992
3374.30362,1.93990
3373.27393,1.93987
3372.24423,1.93984
3371.21454,1.93982
3370.18485,1.93980
3369.15515,1.93976
3368.12546,1.93970
3367.09577,1.93964
3366.06608,1.93959
3365.03638,1.93955
3364.00669,1.93950
3362.97700,1.93946
3361.94730,1.93942
3360.91761,1.93936
3359.88792,1.93924
3358.85823,1.93905
3357.82853,1.93882
3356.79884,1.93853
3355.76915,1.93821
3354.73945,1.93789
3353.70976,1.93759
3352.68007,1.93733
3351.65038,1.93710
3350.62068,1.93689
3349.59099,1.93672
3348.56130,1.93662
3347.53160,1.93661
3346.50191,1.93668
3345.47222,1.93680
3344.44253,1.93694
3343.41283,1.93709
3342.38314,1.93722
3341.35345,1.93736
3340.32375,1.93750
3339.29406,1.93763
3338.26437,1.93777
3337.23467,1.93790
3336.20498,1.93798
3335.17529,1.93803
3334.14560,1.93806
3333.11590,1.93808
3332.08621,1.93807
3331.05652,1.93807
3330.02682,1.93813
3328.99713,1.93823
3327.96744,1.93835
3326.93775,1.93845
3325.90805,1.93853
3324.87836,1.93864
3323.84867,1.93880
3322.81897,1.93900
3321.78928,1.93917
3320.75959,1.93931
3319.72990,1.93940
3318.70020,1.93944
3317.67051,1.93946
3316.64082,1.93950
3315.61112,1.93958
3314.58143,1.93970
3313.55174,1.93986
3312.52205,1.94002
3311.49235,1.94020
3310.46266,1.94042
3309.43297,1.94069
3308.40327,1.94097
3307.37358,1.94125
3306.34389,1.94153
3305.31420,1.94178
3304.28450,1.94200
3303.25481,1.94216
3302.22512,1.94226
3301.19542,1.94232
3300.16573,1.94234
3299.13604,1.94231
3298.10634,1.94221
3297.07665,1.94203
3296.04696,1.94178
3295.01727,1.94149
3293.98757,1.94118
3292.95788,1.94089
3291.92819,1.94064
3290.89849,1.94042
3289.86880,1.94024
3288.83911,1.94010
3287.80942,1.93999
3286.77972,1.93994
3285.75003,1.93996
3284.72034,1.94002
3283.69064,1.94012
3282.66095,1.94024
3281.63126,1.94040
3280.60157,1.94061
3279.57187,1.94084
3278.54218,1.94107
3277.51249,1.94130
3276.48279,1.94151
3275.45310,1.94168
3274.42341,1.94183
3273.39372,1.94192
3272.36402,1.94197
3271.33433,1.94196
3270.30464,1.94191
3269.27494,1.94184
3268.24525,1.94175
3267.21556,1.94166
3266.18586,1.94156
3265.15617,1.94144
3264.12648,1.94131
3263.09679,1.94118
3262.06709,1.94108
3261.03740,1.94101
3260.00771,1.94099
3258.97801,1.94102
3257.94832,1.94110
3256.91863,1.94120
3255.88894,1.94130
3254.85924,1.94142
3253.82955,1.94155
3252.79986,1.94167
3251.77016,1.94177
3250.74047,1.94183
3249.71078,1.94184
3248.68109,1.94177
3247.65139,1.94165
3246.62170,1.94149
3245.59201,1.94131
3244.56231,1.94116
3243.53262,1.94103
3242.50293,1.94094
3241.47324,1.94086
3240.44354,1.94081
3239.41385,1.94078
3238.38416,1.94082
3237.35446,1.94091
3236.32477,1.94107
3235.29508,1.94128
3234.26539,1.94153
3233.23569,1.94182
3232.20600,1.94214
3231.17631,1.94249
3230.14661,1.94287
3229.11692,1.94325
3228.08723,1.94360
3227.05753,1.94391
3226.02784,1.94417
3224.99815,1.94439
3223.96846,1.94457
3222.93876,1.94474
3221.90907,1.94489
3220.87938,1.94504
3219.84968,1.94521
3218.81999,1.94539
3217.79030,1.94555
3216.76061,1.94568
3215.73091,1.94578
3214.70122,1.94588
3213.67153,1.94595
3212.64183,1.94600
3211.61214,1.94601
3210.58245,1.94600
3209.55276,1.94597
3208.52306,1.94594
3207.49337,1.94590
3206.46368,1.94584
3205.43398,1.94574
3204.40429,1.94559
3203.37460,1.94539
3202.34491,1.94516
3201.31521,1.94491
3200.28552,1.94464
3199.25583,1.94436
3198.22613,1.94409
3197.19644,1.94386
3196.16675,1.94369
3195.13706,1.94358
3194.10736,1.94352
3193.07767,1.94350
3192.04798,1.94354
3191.01828,1.94367
3189.98859,1.94387
3188.95890,1.94413
3187.92920,1.94447
3186.89951,1.94486
3185.86982,1.94532
3184.84013,1.94585
3183.81043,1.94643
3182.78074,1.94700
3181.75105,1.94752
3180.72135,1.94796
3179.69166,1.94833
3178.66197,1.94860
3177.63228,1.94878
3176.60258,1.94886
3175.57289,1.94887
3174.54320,1.94883
3173.51350,1.94878
3172.48381,1.94871
3171.45412,1.94863
3170.42443,1.94853
3169.39473,1.94846
3168.36504,1.94841
3167.33535,1.94841
3166.30565,1.94847
3165.27596,1.94859
3164.24627,1.94873
3163.21658,1.94891
3162.18688,1.94911
3161.15719,1.94936
3160.12750,1.94964
3159.09780,1.94991
3158.06811,1.95013
3157.03842,1.95028
3156.00873,1.95038
3154.97903,1.95041
3153.94934,1.95038
3152.91965,1.95030
3151.88995,1.95020
3150.86026,1.95008
3149.83057,1.94996
3148.80087,1.94986
3147.77118,1.94978
3146.74149,1.94974
3145.71180,1.94976
3144.68210,1.94986
3143.65241,1.95003
3142.62272,1.95025
3141.59302,1.95052
3140.56333,1.95080
3139.53364,1.95110
3138.50395,1.95140
3137.47425,1.95170
3136.44456,1.95202
3135.41487,1.95233
3134.38517,1.95261
3133.35548,1.95284
3132.32579,1.95302
3131.29610,1.95315
3130.26640,1.95322
3129.23671,1.95324
3128.20702,1.95321
3127.17732,1.95313
3126.14763,1.95302
3125.11794,1.95289
3124.08825,1.95277
3123.05855,1.95268
3122.02886,1.95265
3120.99917,1.95266
3119.96947,1.95273
3118.93978,1.95284
3117.91009,1.95301
3116.88040,1.95322
3115.85070,1.95348
3114.82101,1.95377
3113.79132,1.95407
3112.76162,1.95441
3111.73193,1.95479
3110.70224,1.95520
3109.67254,1.95562
3108.64285,1.95603
3107.61316,1.95641
3106.58347,1.95677
3105.55377,1.95710
3104.52408,1.95739
3103.49439,1.95762
3102.46469,1.95780
3101.43500,1.95792
3100.40531,1.95803
3099.37562,1.95811
3098.34592,1.95817
3097.31623,1.95820
3096.28654,1.95821
3095.25684,1.95820
3094.22715,1.95819
3093.19746,1.95817
3092.16777,1.95814
3091.13807,1.95810
3090.10838,1.95804
3089.07869,1.95800
3088.04899,1.95800
3087.01930,1.95805
3085.98961,1.95815
3084.95992,1.95828
3083.93022,1.95843
3082.90053,1.95862
3081.87084,1.95884
3080.84114,1.95910
3079.81145,1.95936
3078.78176,1.95962
3077.75207,1.95991
3076.72237,1.96022
3075.69268,1.96055
3074.66299,1.96088
3073.63329,1.96119
3072.60360,1.96146
3071.57391,1.96171
3070.54421,1.96194
3069.51452,1.96214
3068.48483,1.96230
3067.45514,1.96242
3066.42544,1.96253
3065.39575,1.96265
3064.36606,1.96279
3063.33636,1.96295
3062.30667,1.96313
3061.27698,1.96332
3060.24729,1.96354
3059.21759,1.96377
3058.18790,1.96402
3057.15821,1.96428
3056.12851,1.96453
3055.09882,1.96477
3054.06913,1.96501
3053.03944,1.96529
3052.00974,1.96558
3050.98005,1.96586
3049.95036,1.96612
3048.92066,1.96636
3047.89097,1.96657
3046.86128,1.96676
3045.83159,1.96692
3044.80189,1.96704
3043.77220,1.96713
3042.74251,1.96725
3041.71281,1.96739
3040.68312,1.96758
3039.65343,1.96780
3038.62374,1.96805
3037.59404,1.96835
3036.56435,1.96870
3035.53466,1.96910
3034.50496,1.96956
3033.47527,1.97005
3032.44558,1.97058
3031.41588,1.97112
3030.38619,1.97169
3029.35650,1.97230
3028.32681,1.97297
3027.29711,1.97363
3026.26742,1.97426
3025.23773,1.97487
3024.20803,1.97545
3023.17834,1.97598
3022.14865,1.97647
3021.11896,1.97693
3020.08926,1.97738
3019.05957,1.97787
3018.02988,1.97838
3017.00018,1.97891
3015.97049,1.97945
3014.94080,1.98001
3013.91111,1.98059
3012.88141,1.98120
3011.85172,1.98186
3010.82203,1.98259
3009.79233,1.98337
3008.76264,1.98420
3007.73295,1.98507
3006.70326,1.98599
3005.67356,1.98696
3004.64387,1.98798
3003.61418,1.98904
3002.58448,1.99010
3001.55479,1.99116
3000.52510,1.99223
2999.49541,1.99330
2998.46571,1.99438
2997.43602,1.99545
2996.40633,1.99653
2995.37663,1.99761
2994.34694,1.99866
2993.31725,1.99964
2992.28755,2.00055
2991.25786,2.00137
2990.22817,2.00206
2989.19848,2.00265
2988.16878,2.00313
2987.13909,2.00350
2986.10940,2.00376
2985.07970,2.00388
2984.05001,2.00385
2983.02032,2.00367
2981.99063,2.00335
2980.96093,2.00289
2979.93124,2.00230
2978.90155,2.00156
2977.87185,2.00069
2976.84216,1.99969
2975.81247,1.99856
2974.78278,1.99731
2973.75308,1.99596
2972.72339,1.99453
2971.69370,1.99305
2970.66400,1.99152
2969.63431,1.98993
2968.60462,1.98826
2967.57493,1.98654
2966.54523,1.98477
2965.51554,1.98298
2964.48585,1.98117
2963.45615,1.97937
2962.42646,1.97758
2961.39677,1.97582
2960.36707,1.97410
2959.33738,1.97244
2958.30769,1.97085
2957.27800,1.96936
2956.24830,1.96797
2955.21861,1.96670
2954.18892,1.96553
2953.15922,1.96448
2952.12953,1.96354
2951.09984,1.96270
2950.07015,1.96195
2949.04045,1.96131
2948.01076,1.96076
2946.98107,1.96028
2945.95137,1.95979
2944.92168,1.95925
2943.89199,1.95864
2942.86230,1.95792
2941.83260,1.95711
2940.80291,1.95619
2939.77322,1.95516
2938.74352,1.95402
2937.71383,1.95277
2936.68414,1.95142
2935.65445,1.94997
2934.62475,1.94842
2933.59506,1.94681
2932.56537,1.94517
2931.53567,1.94352
2930.50598,1.94191
2929.47629,1.94035
2928.44660,1.93889
2927.41690,1.93753
2926.38721,1.93629
2925.35752,1.93516
2924.32782,1.93415
2923.29813,1.93327
2922.26844,1.93249
2921.23874,1.93182
2920.20905,1.93124
2919.17936,1.93076
2918.14967,1.93038
2917.11997,1.93011
2916.09028,1.92995
2915.06059,1.92987
2914.03089,1.92985
2913.00120,1.92988
2911.97151,1.92993
2910.94182,1.92998
2909.91212,1.93005
2908.88243,1.93015
2907.85274,1.93030
2906.82304,1.93052
2905.79335,1.93080
2904.76366,1.93113
2903.73397,1.93149
2902.70427,1.93188
2901.67458,1.93229
2900.64489,1.93272
2899.61519,1.93319
2898.58550,1.93371
2897.55581,1.93426
2896.52612,1.93484
2895.49642,1.93544
2894.46673,1.93605
2893.43704,1.93667
2892.40734,1.93731
2891.37765,1.93796
2890.34796,1.93859
2889.31827,1.93920
2888.28857,1.93978
2887.25888,1.94029
2886.22919,1.94073
2885.19949,1.94111
2884.16980,1.94143
2883.14011,1.94169
2882.11041,1.94185
2881.08072,1.94190
2880.05103,1.94180
2879.02134,1.94158
2877.99164,1.94125
2876.96195,1.94082
2875.93226,1.94030
2874.90256,1.93971
2873.87287,1.93905
2872.84318,1.93832
2871.81349,1.93754
2870.78379,1.93674
2869.75410,1.93593
2868.72441,1.93516
2867.69471,1.93443
2866.66502,1.93375
2865.63533,1.93310
2864.60564,1.93247
2863.57594,1.93186
2862.54625,1.93127
2861.51656,1.93069
2860.48686,1.93013
2859.45717,1.92957
2858.42748,1.92901
2857.39779,1.92844
2856.36809,1.92786
2855.33840,1.92729
2854.30871,1.92676
2853.27901,1.92629
2852.24932,1.92589
2851.21963,1.92558
2850.18994,1.92536
2849.16024,1.92526
2848.13055,1.92527
2847.10086,1.92539
2846.07116,1.92562
2845.04147,1.92594
2844.01178,1.92634
2842.98208,1.92680
2841.95239,1.92729
2840.92270,1.92778
2839.89301,1.92824
2838.86331,1.92868
2837.83362,1.92908
2836.80393,1.92942
2835.77423,1.92968
2834.74454,1.92987
2833.71485,1.93001
2832.68516,1.93009
2831.65546,1.93014
2830.62577,1.93018
2829.59608,1.93025
2828.56638,1.93037
2827.53669,1.93053
2826.50700,1.93076
2825.47731,1.93104
2824.44761,1.93136
2823.41792,1.93173
2822.38823,1.93212
2821.35853,1.93254
2820.32884,1.93296
2819.29915,1.93339
2818.26946,1.93381
2817.23976,1.93421
2816.21007,1.93458
2815.18038,1.93491
2814.15068,1.93519
2813.12099,1.93540
2812.09130,1.93555
2811.06161,1.93566
2810.03191,1.93573
2809.00222,1.93577
2807.97253,1.93582
2806.94283,1.93587
2805.91314,1.93595
2804.88345,1.93605
2803.85375,1.93617
2802.82406,1.93633
2801.79437,1.93652
2800.76468,1.93675
2799.73498,1.93702
2798.70529,1.93731
2797.67560,1.93762
2796.64590,1.93794
2795.61621,1.93828
2794.58652,1.93863
2793.55683,1.93898
2792.52713,1.93931
2791.49744,1.93960
2790.46775,1.93985
2789.43805,1.94003
2788.40836,1.94016
2787.37867,1.94025
2786.34898,1.94029
2785.31928,1.94029
2784.28959,1.94025
2783.25990,1.94017
2782.23020,1.94006
2781.20051,1.93992
2780.17082,1.93976
2779.14113,1.93961
2778.11143,1.93948
2777.08174,1.93938
2776.05205,1.93930
2775.02235,1.93926
2773.99266,1.93926
2772.96297,1.93927
2771.93328,1.93932
2770.90358,1.93940
2769.87389,1.93953
2768.84420,1.93969
2767.81450,1.93988
2766.78481,1.94009
2765.75512,1.94031
2764.72542,1.94056
2763.69573,1.94083
2762.66604,1.94112
2761.63635,1.94142
2760.60665,1.94172
2759.57696,1.94201
2758.54727,1.94227
2757.51757,1.94250
2756.48788,1.94270
2755.45819,1.94286
2754.42850,1.94297
2753.39880,1.94304
2752.36911,1.94307
2751.33942,1.94305
2750.30972,1.94297
2749.28003,1.94286
2748.25034,1.94270
2747.22065,1.94252
2746.19095,1.94232
2745.16126,1.94213
2744.13157,1.94195
2743.10187,1.94178
2742.07218,1.94166
2741.04249,1.94160
2740.01280,1.94159
2738.98310,1.94165
2737.95341,1.94176
2736.92372,1.94191
2735.89402,1.94211
2734.86433,1.94233
2733.83464,1.94255
2732.80495,1.94277
2731.77525,1.94297
2730.74556,1.94311
2729.71587,1.94321
2728.68617,1.94329
2727.65648,1.94334
2726.62679,1.94339
2725.59709,1.94342
2724.56740,1.94345
2723.53771,1.94348
2722.50802,1.94351
2721.47832,1.94357
2720.44863,1.94366
2719.41894,1.94382
2718.38924,1.94405
2717.35955,1.94433
2716.32986,1.94465
2715.30017,1.94497
2714.27047,1.94530
2713.24078,1.94565
2712.21109,1.94601
2711.18139,1.94635
2710.15170,1.94667
2709.12201,1.94693
2708.09232,1.94711
2707.06262,1.94721
2706.03293,1.94723
2705.00324,1.94720
2703.97354,1.94712
2702.94385,1.94701
2701.91416,1.94686
2700.88447,1.94668
2699.85477,1.94650
2698.82508,1.94631
2697.79539,1.94615
2696.76569,1.94603
2695.73600,1.94597
2694.70631,1.94595
2693.67662,1.94594
2692.64692,1.94592
2691.61723,1.94590
2690.58754,1.94590
2689.55784,1.94594
2688.52815,1.94601
2687.49846,1.94609
2686.46876,1.94616
2685.43907,1.94623
2684.40938,1.94629
2683.37969,1.94633
2682.34999,1.94635
2681.32030,1.94635
2680.29061,1.94634
2679.26091,1.94633
2678.23122,1.94633
2677.20153,1.94634
2676.17184,1.94636
2675.14214,1.94639
2674.11245,1.94645
2673.08276,1.94653
2672.05306,1.94665
2671.02337,1.94679
2669.99368,1.94693
2668.96399,1.94707
2667.93429,1.94722
2666.90460,1.94739
2665.87491,1.94758
2664.84521,1.94779
2663.81552,1.94799
2662.78583,1.94819
2661.75614,1.94839
2660.72644,1.94858
2659.69675,1.94875
2658.66706,1.94889
2657.63736,1.94900
2656.60767,1.94910
2655.57798,1.94920
2654.54828,1.94931
2653.51859,1.94941
2652.48890,1.94950
2651.45921,1.94959
2650.42951,1.94966
2649.39982,1.94973
2648.37013,1.94979
2647.34043,1.94987
2646.31074,1.94994
2645.28105,1.95002
2644.25136,1.95011
2643.22166,1.95021
2642.19197,1.95031
2641.16228,1.95042
2640.13258,1.95052
2639.10289,1.95062
2638.07320,1.95071
2637.04351,1.95079
2636.01381,1.95086
2634.98412,1.95092
2633.95443,1.95100
2632.92473,1.95108
2631.89504,1.95120
2630.86535,1.95133
2629.83566,1.95150
2628.80596,1.95169
2627.77627,1.95189
2626.74658,1.95211
2625.71688,1.95235
2624.68719,1.95261
2623.65750,1.95292
2622.62781,1.95326
2621.59811,1.95364
2620.56842,1.95402
2619.53873,1.95441
2618.50903,1.95479
2617.47934,1.95517
2616.44965,1.95552
2615.41995,1.95584
2614.39026,1.95615
2613.36057,1.95642
2612.33088,1.95666
2611.30118,1.95685
2610.27149,1.95700
2609.24180,1.95710
2608.21210,1.95715
2607.18241,1.95716
2606.15272,1.95714
2605.12303,1.95709
2604.09333,1.95703
2603.06364,1.95696
2602.03395,1.95691
2601.00425,1.95688
2599.97456,1.95686
2598.94487,1.95686
2597.91518,1.95687
2596.88548,1.95690
2595.85579,1.95695
2594.82610,1.95703
2593.79640,1.95714
2592.76671,1.95728
2591.73702,1.95745
2590.70733,1.95764
2589.67763,1.95784
2588.64794,1.95803
2587.61825,1.95821
2586.58855,1.95838
2585.55886,1.95851
2584.52917,1.95863
2583.49948,1.95873
2582.46978,1.95882
2581.44009,1.95891
2580.41040,1.95900
2579.38070,1.95910
2578.35101,1.95921
2577.32132,1.95933
2576.29162,1.95945
2575.26193,1.95956
2574.23224,1.95965
2573.20255,1.95976
2572.17285,1.95989
2571.14316,1.96002
2570.11347,1.96017
2569.08377,1.96030
2568.05408,1.96043
2567.02439,1.96054
2565.99470,1.96065
2564.96500,1.96075
2563.93531,1.96084
2562.90562,1.96090
2561.87592,1.96094
2560.84623,1.96095
2559.81654,1.96095
2558.78685,1.96094
2557.75715,1.96093
2556.72746,1.96089
2555.69777,1.96084
2554.66807,1.96081
2553.63838,1.96078
2552.60869,1.96075
2551.57900,1.96073
2550.54930,1.96070
2549.51961,1.96070
2548.48992,1.96072
2547.46022,1.96076
2546.43053,1.96082
2545.40084,1.96091
2544.37115,1.96101
2543.34145,1.96115
2542.31176,1.96134
2541.28207,1.96157
2540.25237,1.96183
2539.22268,1.96212
2538.19299,1.96242
2537.16329,1.96275
2536.13360,1.96309
2535.10391,1.96345
2534.07422,1.96380
2533.04452,1.96413
2532.01483,1.96444
2530.98514,1.96473
2529.95544,1.96502
2528.92575,1.96528
2527.89606,1.96551
2526.86637,1.96569
2525.83667,1.96585
2524.80698,1.96598
2523.77729,1.96608
2522.74759,1.96618
2521.71790,1.96628
2520.68821,1.96638
2519.65852,1.96648
2518.62882,1.96658
2517.59913,1.96670
2516.56944,1.96685
2515.53974,1.96702
2514.51005,1.96720
2513.48036,1.96738
2512.45067,1.96754
2511.42097,1.96769
2510.39128,1.96782
2509.36159,1.96793
2508.33189,1.96802
2507.30220,1.96809
2506.27251,1.96815
2505.24282,1.96817
2504.21312,1.96816
2503.18343,1.96810
2502.15374,1.96801
2501.12404,1.96788
2500.09435,1.96771
2499.06466,1.96750
2498.03496,1.96724
2497.00527,1.96692
2495.97558,1.96653
2494.94589,1.96609
2493.91619,1.96560
2492.88650,1.96509
2491.85681,1.96456
2490.82711,1.96401
2489.79742,1.96343
2488.76773,1.96281
2487.73804,1.96219
2486.70834,1.96158
2485.67865,1.96100
2484.64896,1.96044
2483.61926,1.95990
2482.58957,1.95939
2481.55988,1.95891
2480.53019,1.95844
2479.50049,1.95801
2478.47080,1.95761
2477.44111,1.95723
2476.41141,1.95685
2475.38172,1.95645
2474.35203,1.95603
2473.32234,1.95557
2472.29264,1.95507
2471.26295,1.95453
2470.23326,1.95397
2469.20356,1.95341
2468.17387,1.95286
2467.14418,1.95231
2466.11449,1.95177
2465.08479,1.95125
2464.05510,1.95074
2463.02541,1.95025
2461.99571,1.94979
2460.96602,1.94937
2459.93633,1.94898
2458.90663,1.94863
2457.87694,1.94833
2456.84725,1.94809
2455.81756,1.94792
2454.78786,1.94783
2453.75817,1.94780
2452.72848,1.94781
2451.69878,1.94784
2450.66909,1.94788
2449.63940,1.94791
2448.60971,1.94793
2447.58001,1.94795
2446.55032,1.94797
2445.52063,1.94801
2444.49093,1.94805
2443.46124,1.94807
2442.43155,1.94808
2441.40186,1.94808
2440.37216,1.94803
2439.34247,1.94794
2438.31278,1.94783
2437.28308,1.94770
2436.25339,1.94755
2435.22370,1.94738
2434.19401,1.94719
2433.16431,1.94700
2432.13462,1.94680
2431.10493,1.94660
2430.07523,1.94638
2429.04554,1.94614
2428.01585,1.94590
2426.98616,1.94563
2425.95646,1.94538
2424.92677,1.94514
2423.89708,1.94493
2422.86738,1.94478
2421.83769,1.94467
2420.80800,1.94458
2419.77830,1.94452
2418.74861,1.94448
2417.71892,1.94444
2416.68923,1.94439
2415.65953,1.94433
2414.62984,1.94426
2413.60015,1.94418
2412.57045,1.94408
2411.54076,1.94394
2410.51107,1.94377
2409.48138,1.94355
2408.45168,1.94329
2407.42199,1.94299
2406.39230,1.94267
2405.36260,1.94234
2404.33291,1.94202
2403.30322,1.94172
2402.27353,1.94146
2401.24383,1.94125
2400.21414,1.94109
2399.18445,1.94099
2398.15475,1.94094
2397.12506,1.94093
2396.09537,1.94096
2395.06568,1.94101
2394.03598,1.94107
2393.00629,1.94116
2391.97660,1.94127
2390.94690,1.94139
2389.91721,1.94152
2388.88752,1.94164
2387.85782,1.94177
2386.82813,1.94194
2385.79844,1.94215
2384.76875,1.94241
2383.73905,1.94275
2382.70936,1.94318
2381.67967,1.94370
2380.64997,1.94433
2379.62028,1.94507
2378.59059,1.94590
2377.56090,1.94684
2376.53120,1.94787
2375.50151,1.94899
2374.47182,1.95018
2373.44212,1.95143
2372.41243,1.95270
2371.38274,1.95392
2370.35305,1.95503
2369.32335,1.95600
2368.29366,1.95678
2367.26397,1.95732
2366.23427,1.95756
2365.20458,1.95751
2364.17489,1.95720
2363.14520,1.95669
2362.11550,1.95600
2361.08581,1.95515
2360.05612,1.95417
2359.02642,1.95309
2357.99673,1.95197
2356.96704,1.95088
2355.93735,1.94986
2354.90765,1.94896
2353.87796,1.94822
2352.84827,1.94771
2351.81857,1.94748
2350.78888,1.94754
2349.75919,1.94788
2348.72949,1.94847
2347.69980,1.94922
2346.67011,1.95005
2345.64042,1.95090
2344.61072,1.95171
2343.58103,1.95243
2342.55134,1.95301
2341.52164,1.95344
2340.49195,1.95375
2339.46226,1.95396
2338.43257,1.95405
2337.40287,1.95400
2336.37318,1.95377
2335.34349,1.95339
2334.31379,1.95292
2333.28410,1.95237
2332.25441,1.95176
2331.22472,1.95112
2330.19502,1.95047
2329.16533,1.94987
2328.13564,1.94936
2327.10594,1.94894
2326.07625,1.94860
2325.04656,1.94833
2324.01687,1.94810
2322.98717,1.94787
2321.95748,1.94763
2320.92779,1.94736
2319.89809,1.94707
2318.86840,1.94677
2317.83871,1.94645
2316.80902,1.94615
2315.77932,1.94587
2314.74963,1.94563
2313.71994,1.94538
2312.69024,1.94514
2311.66055,1.94490
2310.63086,1.94466
2309.60116,1.94444
2308.57147,1.94421
2307.54178,1.94400
2306.51209,1.94382
2305.48239,1.94369
2304.45270,1.94361
2303.42301,1.94355
2302.39331,1.94351
2301.36362,1.94347
2300.33393,1.94342
2299.30424,1.94332
2298.27454,1.94316
2297.24485,1.94296
2296.21516,1.94271
2295.18546,1.94243
2294.15577,1.94212
2293.12608,1.94181
2292.09639,1.94151
2291.06669,1.94121
2290.03700,1.94092
2289.00731,1.94064
2287.97761,1.94038
2286.94792,1.94015
2285.91823,1.93994
2284.88854,1.93978
2283.85884,1.93968
2282.82915,1.93966
2281.79946,1.93972
2280.76976,1.93985
2279.74007,1.94002
2278.71038,1.94022
2277.68069,1.94043
2276.65099,1.94066
2275.62130,1.94089
2274.59161,1.94111
2273.56191,1.94134
2272.53222,1.94157
2271.50253,1.94180
2270.47283,1.94202
2269.44314,1.94223
2268.41345,1.94243
2267.38376,1.94260
2266.35406,1.94277
2265.32437,1.94292
2264.29468,1.94307
2263.26498,1.94322
2262.23529,1.94335
2261.20560,1.94347
2260.17591,1.94358
2259.14621,1.94369
2258.11652,1.94381
2257.08683,1.94394
2256.05713,1.94407
2255.02744,1.94420
2253.99775,1.94433
2252.96806,1.94447
2251.93836,1.94462
2250.90867,1.94477
2249.87898,1.94491
2248.84928,1.94503
2247.81959,1.94512
2246.78990,1.94519
2245.76021,1.94522
2244.73051,1.94523
2243.70082,1.94522
2242.67113,1.94519
2241.64143,1.94514
2240.61174,1.94509
2239.58205,1.94503
2238.55236,1.94498
2237.52266,1.94494
2236.49297,1.94490
2235.46328,1.94488
2234.43358,1.94490
2233.40389,1.94496
2232.37420,1.94506
2231.34450,1.94519
2230.31481,1.94535
2229.28512,1.94554
2228.25543,1.94576
2227.22573,1.94600
2226.19604,1.94622
2225.16635,1.94643
2224.13665,1.94661
2223.10696,1.94677
2222.07727,1.94690
2221.04758,1.94701
2220.01788,1.94709
2218.98819,1.94714
2217.95850,1.94718
2216.92880,1.94721
2215.89911,1.94724
2214.86942,1.94727
2213.83973,1.94730
2212.81003,1.94734
2211.78034,1.94736
2210.75065,1.94739
2209.72095,1.94742
2208.69126,1.94748
2207.66157,1.94756
2206.63188,1.94766
2205.60218,1.94777
2204.57249,1.94791
2203.54280,1.94807
2202.51310,1.94825
2201.48341,1.94844
2200.45372,1.94864
2199.42403,1.94885
2198.39433,1.94908
2197.36464,1.94930
2196.33495,1.94952
2195.30525,1.94973
2194.27556,1.94992
2193.24587,1.95008
2192.21617,1.95021
2191.18648,1.95028
2190.15679,1.95029
2189.12710,1.95023
2188.09740,1.95010
2187.06771,1.94989
2186.03802,1.94964
2185.00832,1.94936
2183.97863,1.94907
2182.94894,1.94876
2181.91925,1.94845
2180.88955,1.94814
2179.85986,1.94787
2178.83017,1.94763
2177.80047,1.94744
2176.77078,1.94730
2175.74109,1.94722
2174.71140,1.94718
2173.68170,1.94718
2172.65201,1.94723
2171.62232,1.94734
2170.59262,1.94749
2169.56293,1.94769
2168.53324,1.94791
2167.50355,1.94814
2166.47385,1.94836
2165.44416,1.94859
2164.41447,1.94883
2163.38477,1.94909
2162.35508,1.94939
2161.32539,1.94975
2160.29570,1.95015
2159.26600,1.95060
2158.23631,1.95110
2157.20662,1.95163
2156.17692,1.95220
2155.14723,1.95277
2154.11754,1.95335
2153.08784,1.95392
2152.05815,1.95448
2151.02846,1.95500
2149.99877,1.95548
2148.96907,1.95593
2147.93938,1.95635
2146.90969,1.95674
2145.87999,1.95707
2144.85030,1.95734
2143.82061,1.95753
2142.79092,1.95768
2141.76122,1.95779
2140.73153,1.95788
2139.70184,1.95798
2138.67214,1.95807
2137.64245,1.95817
2136.61276,1.95826
2135.58307,1.95835
2134.55337,1.95841
2133.52368,1.95845
2132.49399,1.95845
2131.46429,1.95840
2130.43460,1.95829
2129.40491,1.95815
2128.37522,1.95796
2127.34552,1.95773
2126.31583,1.95746
2125.28614,1.95714
2124.25644,1.95679
2123.22675,1.95643
2122.19706,1.95604
2121.16737,1.95564
2120.13767,1.95525
2119.10798,1.95488
2118.07829,1.95456
2117.04859,1.95427
2116.01890,1.95401
2114.98921,1.95377
2113.95951,1.95357
2112.92982,1.95338
2111.90013,1.95322
2110.87044,1.95308
2109.84074,1.95295
2108.81105,1.95282
2107.78136,1.95268
2106.75166,1.95254
2105.72197,1.95241
2104.69228,1.95229
2103.66259,1.95218
2102.63289,1.95205
2101.60320,1.95192
2100.57351,1.95179
2099.54381,1.95168
2098.51412,1.95159
2097.48443,1.95153
2096.45474,1.95148
2095.42504,1.95147
2094.39535,1.95148
2093.36566,1.95150
2092.33596,1.95153
2091.30627,1.95158
2090.27658,1.95164
2089.24689,1.95174
2088.21719,1.95185
2087.18750,1.95200
2086.15781,1.95217
2085.12811,1.95234
2084.09842,1.95252
2083.06873,1.95272
2082.03903,1.95293
2081.00934,1.95314
2079.97965,1.95335
2078.94996,1.95355
2077.92026,1.95374
2076.89057,1.95391
2075.86088,1.95409
2074.83118,1.95427
2073.80149,1.95445
2072.77180,1.95461
2071.74211,1.95475
2070.71241,1.95487
2069.68272,1.95497
2068.65303,1.95506
2067.62333,1.95512
2066.59364,1.95517
2065.56395,1.95519
2064.53426,1.95519
2063.50456,1.95519
2062.47487,1.95519
2061.44518,1.95519
2060.41548,1.95519
2059.38579,1.95520
2058.35610,1.95523
2057.32641,1.95525
2056.29671,1.95527
2055.26702,1.95531
2054.23733,1.95537
2053.20763,1.95546
2052.17794,1.95558
2051.14825,1.95574
2050.11856,1.95593
2049.08886,1.95613
2048.05917,1.95637
2047.02948,1.95662
2045.99978,1.95689
2044.97009,1.95716
2043.94040,1.95745
2042.91070,1.95771
2041.88101,1.95795
2040.85132,1.95816
2039.82163,1.95835
2038.79193,1.95853
2037.76224,1.95869
2036.73255,1.95884
2035.70285,1.95896
2034.67316,1.95907
2033.64347,1.95917
2032.61378,1.95926
2031.58408,1.95936
2030.55439,1.95947
2029.52470,1.95960
2028.49500,1.95973
2027.46531,1.95986
2026.43562,1.96000
2025.40593,1.96015
2024.37623,1.96032
2023.34654,1.96048
2022.31685,1.96063
2021.28715,1.96076
2020.25746,1.96089
2019.22777,1.96101
2018.19808,1.96109
2017.16838,1.96113
2016.13869,1.96114
2015.10900,1.96116
2014.07930,1.96119
2013.04961,1.96122
2012.01992,1.96127
2010.99023,1.96135
2009.96053,1.96148
2008.93084,1.96168
2007.90115,1.96192
2006.87145,1.96221
2005.84176,1.96250
2004.81207,1.96281
2003.78237,1.96311
2002.75268,1.96341
2001.72299,1.96372
2000.69330,1.96402
1999.66360,1.96429
1998.63391,1.96451
1997.60422,1.96470
1996.57452,1.96485
1995.54483,1.96495
1994.51514,1.96501
1993.48545,1.96501
1992.45575,1.96496
1991.42606,1.96489
1990.39637,1.96481
1989.36667,1.96475
1988.33698,1.96471
1987.30729,1.96471
1986.27760,1.96475
1985.24790,1.96483
1984.21821,1.96492
1983.18852,1.96501
1982.15882,1.96508
1981.12913,1.96514
1980.09944,1.96520
1979.06975,1.96528
1978.04005,1.96540
1977.01036,1.96557
1975.98067,1.96578
1974.95097,1.96601
1973.92128,1.96628
1972.89159,1.96659
1971.86190,1.96692
1970.83220,1.96728
1969.80251,1.96765
1968.77282,1.96803
1967.74312,1.96842
1966.71343,1.96880
1965.68374,1.96919
1964.65404,1.96961
1963.62435,1.97003
1962.59466,1.97044
1961.56497,1.97080
1960.53527,1.97108
1959.50558,1.97127
1958.47589,1.97137
1957.44619,1.97141
1956.41650,1.97139
1955.38681,1.97133
1954.35712,1.97126
1953.32742,1.97121
1952.29773,1.97116
1951.26804,1.97111
1950.23834,1.97106
1949.20865,1.97103
1948.17896,1.97101
1947.14927,1.97100
1946.11957,1.97100
1945.08988,1.97103
1944.06019,1.97111
1943.03049,1.97124
1942.00080,1.97141
1940.97111,1.97167
1939.94142,1.97203
1938.91172,1.97245
1937.88203,1.97291
1936.85234,1.97339
1935.82264,1.97386
1934.79295,1.97430
1933.76326,1.97471
1932.73357,1.97510
1931.70387,1.97546
1930.67418,1.97580
1929.64449,1.97613
1928.61479,1.97642
1927.58510,1.97665
1926.55541,1.97682
1925.52571,1.97692
1924.49602,1.97698
1923.46633,1.97698
1922.43664,1.97692
1921.40694,1.97684
1920.37725,1.97679
1919.34756,1.97676
1918.31786,1.97673
1917.28817,1.97672
1916.25848,1.97680
1915.22879,1.97697
1914.19909,1.97716
1913.16940,1.97735
1912.13971,1.97754
1911.11001,1.97773
1910.08032,1.97792
1909.05063,1.97813
1908.02094,1.97839
1906.99124,1.97870
1905.96155,1.97904
1904.93186,1.97938
1903.90216,1.97971
1902.87247,1.98003
1901.84278,1.98034
1900.81309,1.98064
1899.78339,1.98092
1898.75370,1.98116
1897.72401,1.98138
1896.69431,1.98160
1895.66462,1.98182
1894.63493,1.98201
1893.60524,1.98215
1892.57554,1.98228
1891.54585,1.98242
1890.51616,1.98255
1889.48646,1.98268
1888.45677,1.98283
1887.42708,1.98307
1886.39738,1.98340
1885.36769,1.98380
1884.33800,1.98428
1883.30831,1.98481
1882.27861,1.98537
1881.24892,1.98593
1880.21923,1.98647
1879.18953,1.98699
1878.15984,1.98749
1877.13015,1.98796
1876.10046,1.98839
1875.07076,1.98878
1874.04107,1.98911
1873.01138,1.98938
1871.98168,1.98959
1870.95199,1.98970
1869.92230,1.98974
1868.89261,1.98969
1867.86291,1.98960
1866.83322,1.98959
1865.80353,1.98970
1864.77383,1.98995
1863.74414,1.99035
1862.71445,1.99088
1861.68476,1.99148
1860.65506,1.99213
1859.62537,1.99281
1858.59568,1.99351
1857.56598,1.99420
1856.53629,1.99488
1855.50660,1.99556
1854.47691,1.99620
1853.44721,1.99677
1852.41752,1.99729
1851.38783,1.99779
1850.35813,1.99825
1849.32844,1.99867
1848.29875,1.99902
1847.26905,1.99934
1846.23936,1.99965
1845.20967,1.99998
1844.17998,2.00032
1843.15028,2.00076
1842.12059,2.00139
1841.09090,2.00216
1840.06120,2.00301
1839.03151,2.00392
1838.00182,2.00485
1836.97213,2.00578
1835.94243,2.00670
1834.91274,2.00760
1833.88305,2.00847
1832.85335,2.00933
1831.82366,2.01019
1830.79397,2.01102
1829.76428,2.01178
1828.73458,2.01254
1827.70489,2.01338
1826.67520,2.01430
1825.64550,2.01524
1824.61581,2.01618
1823.58612,2.01719
1822.55643,2.01829
1821.52673,2.01950
1820.49704,2.02081
1819.46735,2.02222
1818.43765,2.02376
1817.40796,2.02542
1816.37827,2.02711
1815.34858,2.02881
1814.31888,2.03053
1813.28919,2.03227
1812.25950,2.03403
1811.22980,2.03579
1810.20011,2.03755
1809.17042,2.03930
1808.14072,2.04104
1807.11103,2.04275
1806.08134,2.04443
1805.05165,2.04604
1804.02195,2.04759
1802.99226,2.04906
1801.96257,2.05041
1800.93287,2.05162
1799.90318,2.05272
1798.87349,2.05375
1797.84380,2.05475
1796.81410,2.05566
1795.78441,2.05647
1794.75472,2.05721
1793.72502,2.05790
1792.69533,2.05852
1791.66564,2.05909
1790.63595,2.05972
1789.60625,2.06044
1788.57656,2.06124
1787.54687,2.06211
1786.51717,2.06299
1785.48748,2.06385
1784.45779,2.06470
1783.42810,2.06558
1782.39840,2.06648
1781.36871,2.06734
1780.33902,2.06811
1779.30932,2.06882
1778.27963,2.06950
1777.24994,2.07015
1776.22024,2.07073
1775.19055,2.07119
1774.16086,2.07157
1773.13117,2.07189
1772.10147,2.07208
1771.07178,2.07224
1770.04209,2.07250
1769.01239,2.07287
1767.98270,2.07328
1766.95301,2.07377
1765.92332,2.07440
1764.89362,2.07510
1763.86393,2.07577
1762.83424,2.07639
1761.80454,2.07696
1760.77485,2.07753
1759.74516,2.07818
1758.71547,2.07884
1757.68577,2.07940
1756.65608,2.07987
1755.62639,2.08036
1754.59669,2.08092
1753.56700,2.08145
1752.53731,2.08187
1751.50762,2.08215
1750.47792,2.08231
1749.44823,2.08242
1748.41854,2.08245
1747.38884,2.08239
1746.35915,2.08231
1745.32946,2.08221
1744.29977,2.08197
1743.27007,2.08152
1742.24038,2.08081
1741.21069,2.07986
1740.18099,2.07865
1739.15130,2.07718
1738.12161,2.07559
1737.09191,2.07397
1736.06222,2.07232
1735.03253,2.07057
1734.00284,2.06860
1732.97314,2.06655
1731.94345,2.06461
1730.91376,2.06274
1729.88406,2.06081
1728.85437,2.05877
1727.82468,2.05671
1726.79499,2.05467
1725.76529,2.05265
1724.73560,2.05052
1723.70591,2.04818
1722.67621,2.04575
1721.64652,2.04331
1720.61683,2.04078
1719.58714,2.03803
1718.55744,2.03505
1717.52775,2.03191
1716.49806,2.02878
1715.46836,2.02574
1714.43867,2.02279
1713.40898,2.01997
1712.37929,2.01726
1711.34959,2.01460
1710.31990,2.01197
1709.29021,2.00939
1708.26051,2.00683
1707.23082,2.00433
1706.20113,2.00184
1705.17144,1.99943
1704.14174,1.99719
1703.11205,1.99519
1702.08236,1.99339
1701.05266,1.99168
1700.02297,1.98990
1698.99328,1.98824
1697.96358,1.98694
1696.93389,1.98591
1695.90420,1.98498
1694.87451,1.98420
1693.84481,1.98373
1692.81512,1.98357
1691.78543,1.98373
1690.75573,1.98414
1689.72604,1.98471
1688.69635,1.98542
1687.66666,1.98623
1686.63696,1.98702
1685.60727,1.98772
1684.57758,1.98825
1683.54788,1.98858
1682.51819,1.98898
1681.48850,1.98951
1680.45881,1.99010
1679.42911,1.99072
1678.39942,1.99131
1677.36973,1.99165
1676.34003,1.99170
1675.31034,1.99160
1674.28065,1.99159
1673.25096,1.99175
1672.22126,1.99194
1671.19157,1.99205
1670.16188,1.99216
1669.13218,1.99230
1668.10249,1.99245
1667.07280,1.99268
1666.04311,1.99296
1665.01341,1.99324
1663.98372,1.99346
1662.95403,1.99355
1661.92433,1.99348
1660.89464,1.99329
1659.86495,1.99298
1658.83525,1.99261
1657.80556,1.99232
1656.77587,1.99201
1655.74618,1.99160
1654.71648,1.99105
1653.68679,1.99027
1652.65710,1.98917
1651.62740,1.98817
1650.59771,1.98744
1649.56802,1.98694
1648.53833,1.98656
1647.50863,1.98612
1646.47894,1.98565
1645.44925,1.98532
1644.41955,1.98525
1643.38986,1.98543
1642.36017,1.98579
1641.33048,1.98618
1640.30078,1.98649
1639.27109,1.98673
1638.24140,1.98689
1637.21170,1.98699
1636.18201,1.98699
1635.15232,1.98684
1634.12263,1.98664
1633.09293,1.98646
1632.06324,1.98621
1631.03355,1.98583
1630.00385,1.98530
1628.97416,1.98466
1627.94447,1.98399
1626.91478,1.98344
1625.88508,1.98296
1624.85539,1.98247
1623.82570,1.98191
1622.79600,1.98135
1621.76631,1.98094
1620.73662,1.98074
1619.70692,1.98066
1618.67723,1.98061
1617.64754,1.98053
1616.61785,1.98036
1615.58815,1.98018
1614.55846,1.98012
1613.52877,1.98016
1612.49907,1.98022
1611.46938,1.98030
1610.43969,1.98043
1609.41000,1.98064
1608.38030,1.98086
1607.35061,1.98105
1606.32092,1.98123
1605.29122,1.98140
1604.26153,1.98158
1603.23184,1.98175
1602.20215,1.98196
1601.17245,1.98218
1600.14276,1.98231
1599.11307,1.98236
1598.08337,1.98242
1597.05368,1.98252
1596.02399,1.98264
1594.99430,1.98274
1593.96460,1.98278
1592.93491,1.98278
1591.90522,1.98281
1590.87552,1.98295
1589.84583,1.98317
1588.81614,1.98338
1587.78645,1.98355
1586.75675,1.98374
1585.72706,1.98398
1584.69737,1.98425
1583.66767,1.98445
1582.63798,1.98449
1581.60829,1.98445
1580.57859,1.98443
1579.54890,1.98446
1578.51921,1.98450
1577.48952,1.98453
1576.45982,1.98454
1575.43013,1.98455
1574.40044,1.98467
1573.37074,1.98494
1572.34105,1.98533
1571.31136,1.98584
1570.28167,1.98637
1569.25197,1.98685
1568.22228,1.98736
1567.19259,1.98796
1566.16289,1.98857
1565.13320,1.98909
1564.10351,1.98943
1563.07382,1.98959
1562.04412,1.98964
1561.01443,1.98959
1559.98474,1.98931
1558.95504,1.98866
1557.92535,1.98773
1556.89566,1.98683
1555.86597,1.98606
1554.83627,1.98536
1553.80658,1.98471
1552.77689,1.98420
1551.74719,1.98385
1550.71750,1.98364
1549.68781,1.98353
1548.65812,1.98356
1547.62842,1.98376
1546.59873,1.98405
1545.56904,1.98427
1544.53934,1.98438
1543.50965,1.98453
1542.47996,1.98471
1541.45026,1.98471
1540.42057,1.98446
1539.39088,1.98397
1538.36119,1.98342
1537.33149,1.98293
1536.30180,1.98241
1535.27211,1.98176
1534.24241,1.98097
1533.21272,1.98014
1532.18303,1.97942
1531.15334,1.97872
1530.12364,1.97797
1529.09395,1.97726
1528.06426,1.97665
1527.03456,1.97613
1526.00487,1.97567
1524.97518,1.97529
1523.94549,1.97505
1522.91579,1.97488
1521.88610,1.97462
1520.85641,1.97422
1519.82671,1.97384
1518.79702,1.97359
1517.76733,1.97340
1516.73764,1.97316
1515.70794,1.97297
1514.67825,1.97288
1513.64856,1.97296
1512.61886,1.97313
1511.58917,1.97327
1510.55948,1.97338
1509.52979,1.97347
1508.50009,1.97353
1507.47040,1.97355
1506.44071,1.97344
1505.41101,1.97336
1504.38132,1.97349
1503.35163,1.97379
1502.32193,1.97416
1501.29224,1.97455
1500.26255,1.97491
1499.23286,1.97521
1498.20316,1.97543
1497.17347,1.97557
1496.14378,1.97565
1495.11408,1.97581
1494.08439,1.97615
1493.05470,1.97663
1492.02501,1.97725
1490.99531,1.97803
1489.96562,1.97895
1488.93593,1.98003
1487.90623,1.98138
1486.87654,1.98303
1485.84685,1.98505
1484.81716,1.98743
1483.78746,1.99014
1482.75777,1.99312
1481.72808,1.99633
1480.69838,1.99976
1479.66869,2.00339
1478.63900,2.00709
1477.60931,2.01078
1476.57961,2.01434
1475.54992,2.01769
1474.52023,2.02083
1473.49053,2.02367
1472.46084,2.02608
1471.43115,2.02804
1470.40145,2.02967
1469.37176,2.03097
1468.34207,2.03183
1467.31238,2.03220
1466.28268,2.03207
1465.25299,2.03149
1464.22330,2.03055
1463.19360,2.02938
1462.16391,2.02800
1461.13422,2.02639
1460.10453,2.02454
1459.07483,2.02249
1458.04514,2.02023
1457.01545,2.01778
1455.98575,2.01532
1454.95606,2.01304
1453.92637,2.01095
1452.89668,2.00899
1451.86698,2.00716
1450.83729,2.00548
1449.80760,2.00397
1448.77790,2.00255
1447.74821,2.00118
1446.71852,1.99994
1445.68883,1.99893
1444.65913,1.99808
1443.62944,1.99729
1442.59975,1.99651
1441.57005,1.99577
1440.54036,1.99511
1439.51067,1.99454
1438.48098,1.99409
1437.45128,1.99367
1436.42159,1.99323
1435.39190,1.99289
1434.36220,1.99270
1433.33251,1.99266
1432.30282,1.99280
1431.27312,1.99318
1430.24343,1.99376
1429.21374,1.99444
1428.18405,1.99519
1427.15435,1.99605
1426.12466,1.99701
1425.09497,1.99802
1424.06527,1.99902
1423.03558,1.99997
1422.00589,2.00097
1420.97620,2.00200
1419.94650,2.00295
1418.91681,2.00375
1417.88712,2.00447
1416.85742,2.00525
1415.82773,2.00610
1414.79804,2.00702
1413.76835,2.00801
1412.73865,2.00903
1411.70896,2.01010
1410.67927,2.01127
1409.64957,2.01258
1408.61988,2.01401
1407.59019,2.01554
1406.56050,2.01716
1405.53080,2.01881
1404.50111,2.02050
1403.47142,2.02227
1402.44172,2.02410
1401.41203,2.02593
1400.38234,2.02766
1399.35265,2.02923
1398.32295,2.03058
1397.29326,2.03175
1396.26357,2.03271
1395.23387,2.03341
1394.20418,2.03386
1393.17449,2.03415
1392.14479,2.03426
1391.11510,2.03413
1390.08541,2.03375
1389.05572,2.03311
1388.02602,2.03220
1386.99633,2.03105
1385.96664,2.02974
1384.93694,2.02837
1383.90725,2.02694
1382.87756,2.02546
1381.84787,2.02394
1380.81817,2.02242
1379.78848,2.02094
1378.75879,2.01950
1377.72909,2.01808
1376.69940,2.01668
1375.66971,2.01528
1374.64002,2.01388
1373.61032,2.01250
1372.58063,2.01122
1371.55094,2.01005
1370.52124,2.00894
1369.49155,2.00787
1368.46186,2.00683
1367.43217,2.00582
1366.40247,2.00487
1365.37278,2.00398
1364.34309,2.00314
1363.31339,2.00236
1362.28370,2.00167
1361.25401,2.00117
1360.22432,2.00088
1359.19462,2.00076
1358.16493,2.00080
1357.13524,2.00096
1356.10554,2.00125
1355.07585,2.00164
1354.04616,2.00212
1353.01646,2.00270
1351.98677,2.00338
1350.95708,2.00412
1349.92739,2.00491
1348.89769,2.00573
1347.86800,2.00657
1346.83831,2.00740
1345.80861,2.00818
1344.77892,2.00891
1343.74923,2.00959
1342.71954,2.01023
1341.68984,2.01083
1340.66015,2.01138
1339.63046,2.01189
1338.60076,2.01242
1337.57107,2.01300
1336.54138,2.01365
1335.51169,2.01437
1334.48199,2.01512
1333.45230,2.01591
1332.42261,2.01674
1331.39291,2.01763
1330.36322,2.01860
1329.33353,2.01964
1328.30384,2.02075
1327.27414,2.02187
1326.24445,2.02298
1325.21476,2.02409
1324.18506,2.02517
1323.15537,2.02620
1322.12568,2.02720
1321.09599,2.02812
1320.06629,2.02893
1319.03660,2.02959
1318.00691,2.03009
1316.97721,2.03045
1315.94752,2.03071
1314.91783,2.03088
1313.88813,2.03097
1312.85844,2.03099
1311.82875,2.03094
1310.79906,2.03085
1309.76936,2.03075
1308.73967,2.03065
1307.70998,2.03059
1306.68028,2.03058
1305.65059,2.03064
1304.62090,2.03077
1303.59121,2.03095
1302.56151,2.03121
1301.53182,2.03155
1300.50213,2.03198
1299.47243,2.03248
1298.44274,2.03302
1297.41305,2.03359
1296.38336,2.03413
1295.35366,2.03462
1294.32397,2.03505
1293.29428,2.03546
1292.26458,2.03584
1291.23489,2.03618
1290.20520,2.03644
1289.17551,2.03661
1288.14581,2.03670
1287.11612,2.03672
1286.08643,2.03667
1285.05673,2.03655
1284.02704,2.03637
1282.99735,2.03613
1281.96766,2.03586
1280.93796,2.03554
1279.90827,2.03520
1278.87858,2.03482
1277.84888,2.03443
1276.81919,2.03402
1275.78950,2.03356
1274.75980,2.03307
1273.73011,2.03253
1272.70042,2.03197
1271.67073,2.03138
1270.64103,2.03080
1269.61134,2.03024
1268.58165,2.02971
1267.55195,2.02919
1266.52226,2.02867
1265.49257,2.02817
1264.46288,2.02769
1263.43318,2.02726
1262.40349,2.02685
1261.37380,2.02645
1260.34410,2.02608
1259.31441,2.02573
1258.28472,2.02543
1257.25503,2.02515
1256.22533,2.02487
1255.19564,2.02458
1254.16595,2.02429
1253.13625,2.02397
1252.10656,2.02360
1251.07687,2.02319
1250.04718,2.02276
1249.01748,2.02233
1247.98779,2.02191
1246.95810,2.02153
1245.92840,2.02116
1244.89871,2.02080
1243.86902,2.02045
1242.83933,2.02011
1241.80963,2.01980
1240.77994,2.01951
1239.75025,2.01924
1238.72055,2.01898
1237.69086,2.01871
1236.66117,2.01845
1235.63147,2.01819
1234.60178,2.01794
1233.57209,2.01769
1232.54240,2.01743
1231.51270,2.01716
1230.48301,2.01689
1229.45332,2.01662
1228.42362,2.01636
1227.39393,2.01610
1226.36424,2.01587
1225.33455,2.01571
1224.30485,2.01562
1223.27516,2.01557
1222.24547,2.01554
1221.21577,2.01553
1220.18608,2.01552
1219.15639,2.01551
1218.12670,2.01552
1217.09700,2.01552
1216.06731,2.01550
1215.03762,2.01544
1214.00792,2.01533
1212.97823,2.01517
1211.94854,2.01497
1210.91885,2.01474
1209.88915,2.01447
1208.85946,2.01419
1207.82977,2.01391
1206.80007,2.01365
1205.77038,2.01339
1204.74069,2.01316
1203.71100,2.01294
1202.68130,2.01275
1201.65161,2.01262
1200.62192,2.01255
1199.59222,2.01251
1198.56253,2.01248
1197.53284,2.01246
1196.50314,2.01244
1195.47345,2.01241
1194.44376,2.01237
1193.41407,2.01231
1192.38437,2.01219
1191.35468,2.01200
1190.32499,2.01174
1189.29529,2.01141
1188.26560,2.01102
1187.23591,2.01056
1186.20622,2.01007
1185.17652,2.00956
1184.14683,2.00906
1183.11714,2.00857
1182.08744,2.00809
1181.05775,2.00761
1180.02806,2.00717
1178.99837,2.00675
1177.96867,2.00638
1176.93898,2.00604
1175.90929,2.00573
1174.87959,2.00545
1173.84990,2.00521
1172.82021,2.00499
1171.79052,2.00477
1170.76082,2.00455
1169.73113,2.00430
1168.70144,2.00401
1167.67174,2.00366
1166.64205,2.00327
1165.61236,2.00281
1164.58266,2.00230
1163.55297,2.00174
1162.52328,2.00113
1161.49359,2.00052
1160.46389,1.99991
1159.43420,1.99930
1158.40451,1.99871
1157.37481,1.99814
1156.34512,1.99761
1155.31543,1.99713
1154.28574,1.99669
1153.25604,1.99629
1152.22635,1.99595
1151.19666,1.99571
1150.16696,1.99556
1149.13727,1.99550
1148.10758,1.99550
1147.07789,1.99556
1146.04819,1.99567
1145.01850,1.99583
1143.98881,1.99603
1142.95911,1.99625
1141.92942,1.99645
1140.89973,1.99665
1139.87004,1.99686
1138.84034,1.99707
1137.81065,1.99730
1136.78096,1.99752
1135.75126,1.99771
1134.72157,1.99788
1133.69188,1.99802
1132.66219,1.99814
1131.63249,1.99824
1130.60280,1.99829
1129.57311,1.99829
1128.54341,1.99826
1127.51372,1.99821
1126.48403,1.99815
1125.45433,1.99809
1124.42464,1.99801
1123.39495,1.99792
1122.36526,1.99784
1121.33556,1.99777
1120.30587,1.99773
1119.27618,1.99769
1118.24648,1.99768
1117.21679,1.99772
1116.18710,1.99782
1115.15741,1.99802
1114.12771,1.99830
1113.09802,1.99862
1112.06833,1.99899
1111.03863,1.99942
1110.00894,1.99990
1108.97925,2.00045
1107.94956,2.00103
1106.91986,2.00161
1105.89017,2.00216
1104.86048,2.00268
1103.83078,2.00315
1102.80109,2.00357
1101.77140,2.00392
1100.74171,2.00417
1099.71201,2.00430
1098.68232,2.00431
1097.65263,2.00418
1096.62293,2.00392
1095.59324,2.00351
1094.56355,2.00294
1093.53386,2.00222
1092.50416,2.00136
1091.47447,2.00041
1090.44478,1.99939
1089.41508,1.99832
1088.38539,1.99724
1087.35570,1.99620
1086.32600,1.99523
1085.29631,1.99434
1084.26662,1.99355
1083.23693,1.99287
1082.20723,1.99232
1081.17754,1.99191
1080.14785,1.99166
1079.11815,1.99157
1078.08846,1.99160
1077.05877,1.99174
1076.02908,1.99196
1074.99938,1.99225
1073.96969,1.99259
1072.94000,1.99296
1071.91030,1.99329
1070.88061,1.99353
1069.85092,1.99366
1068.82123,1.99371
1067.79153,1.99367
1066.76184,1.99355
1065.73215,1.99336
1064.70245,1.99309
1063.67276,1.99275
1062.64307,1.99234
1061.61338,1.99184
1060.58368,1.99128
1059.55399,1.99068
1058.52430,1.99004
1057.49460,1.98939
1056.46491,1.98874
1055.43522,1.98809
1054.40553,1.98745
1053.37583,1.98680
1052.34614,1.98615
1051.31645,1.98554
1050.28675,1.98498
1049.25706,1.98446
1048.22737,1.98394
1047.19767,1.98340
1046.16798,1.98284
1045.13829,1.98227
1044.10860,1.98170
1043.07890,1.98114
1042.04921,1.98057
1041.01952,1.97999
1039.98982,1.97938
1038.96013,1.97871
1037.93044,1.97796
1036.90075,1.97713
1035.87105,1.97623
1034.84136,1.97527
1033.81167,1.97424
1032.78197,1.97316
1031.75228,1.97204
1030.72259,1.97088
1029.69290,1.96968
1028.66320,1.96847
1027.63351,1.96730
1026.60382,1.96617
1025.57412,1.96508
1024.54443,1.96401
1023.51474,1.96294
1022.48505,1.96190
1021.45535,1.96088
1020.42566,1.95990
1019.39597,1.95896
1018.36627,1.95808
1017.33658,1.95724
1016.30689,1.95644
1015.27720,1.95565
1014.24750,1.95488
1013.21781,1.95412
1012.18812,1.95340
1011.15842,1.95272
1010.12873,1.95209
1009.09904,1.95152
1008.06934,1.95103
1007.03965,1.95061
1006.00996,1.95029
1004.98027,1.95006
1003.95057,1.94996
1002.92088,1.94997
1001.89119,1.95007
1000.86149,1.95023
999.83180,1.95046
998.80211,1.95075
997.77242,1.95109
996.74272,1.95144
995.71303,1.95180
994.68334,1.95219
993.65364,1.95260
992.62395,1.95300
991.59426,1.95340
990.56457,1.95378
989.53487,1.95411
988.50518,1.95438
987.47549,1.95460
986.44579,1.95477
985.41610,1.95489
984.38641,1.95497
983.35672,1.95503
982.32702,1.95506
981.29733,1.95507
980.26764,1.95509
979.23794,1.95510
978.20825,1.95510
977.17856,1.95507
976.14887,1.95503
975.11917,1.95499
974.08948,1.95494
973.05979,1.95489
972.03009,1.95485
971.00040,1.95484
969.97071,1.95489
968.94101,1.95499
967.91132,1.95510
966.88163,1.95522
965.85194,1.95533
964.82224,1.95543
963.79255,1.95554
962.76286,1.95565
961.73316,1.95578
960.70347,1.95592
959.67378,1.95606
958.64409,1.95622
957.61439,1.95641
956.58470,1.95663
955.55501,1.95688
954.52531,1.95714
953.49562,1.95740
952.46593,1.95765
951.43624,1.95792
950.40654,1.95821
949.37685,1.95854
948.34716,1.95890
947.31746,1.95932
946.28777,1.95978
945.25808,1.96027
944.22839,1.96072
943.19869,1.96113
942.16900,1.96150
941.13931,1.96184
940.10961,1.96216
939.07992,1.96244
938.05023,1.96266
937.02054,1.96281
935.99084,1.96288
934.96115,1.96288
933.93146,1.96280
932.90176,1.96268
931.87207,1.96252
930.84238,1.96233
929.81268,1.96211
928.78299,1.96187
927.75330,1.96164
926.72361,1.96143
925.69391,1.96128
924.66422,1.96115
923.63453,1.96104
922.60483,1.96094
921.57514,1.96084
920.54545,1.96072
919.51576,1.96058
918.48606,1.96046
917.45637,1.96037
916.42668,1.96033
915.39698,1.96031
914.36729,1.96028
913.33760,1.96023
912.30791,1.96016
911.27821,1.96007
910.24852,1.95998
909.21883,1.95991
908.18913,1.95988
907.15944,1.95988
906.12975,1.95991
905.10006,1.95992
904.07036,1.95991
903.04067,1.95985
902.01098,1.95974
900.98128,1.95951
899.95159,1.95916
898.92190,1.95871
897.89221,1.95820
896.86251,1.95766
895.83282,1.95711
894.80313,1.95658
893.77343,1.95606
892.74374,1.95557
891.71405,1.95512
890.68435,1.95471
889.65466,1.95434
888.62497,1.95403
887.59528,1.95380
886.56558,1.95366
885.53589,1.95368
884.50620,1.95386
883.47650,1.95419
882.44681,1.95466
881.41712,1.95523
880.38743,1.95588
879.35773,1.95658
878.32804,1.95730
877.29835,1.95805
876.26865,1.95883
875.23896,1.95967
874.20927,1.96062
873.17958,1.96168
872.14988,1.96284
871.12019,1.96400
870.09050,1.96514
869.06080,1.96623
868.03111,1.96728
867.00142,1.96831
865.97173,1.96928
864.94203,1.97018
863.91234,1.97100
862.88265,1.97174
861.85295,1.97244
860.82326,1.97313
859.79357,1.97381
858.76387,1.97445
857.73418,1.97503
856.70449,1.97552
855.67480,1.97591
854.64510,1.97626
853.61541,1.97658
852.58572,1.97689
851.55602,1.97721
850.52633,1.97755
849.49664,1.97792
848.46695,1.97829
847.43725,1.97858
846.40756,1.97880
845.37787,1.97899
844.34817,1.97917
843.31848,1.97936
842.28879,1.97953
841.25910,1.97970
840.22940,1.97985
839.19971,1.97999
838.17002,1.98015
837.14032,1.98033
836.11063,1.98052
835.08094,1.98071
834.05125,1.98090
833.02155,1.98104
831.99186,1.98115
830.96217,1.98127
829.93247,1.98141
828.90278,1.98157
827.87309,1.98172
826.84340,1.98190
825.81370,1.98210
824.78401,1.98232
823.75432,1.98254
822.72462,1.98280
821.69493,1.98314
820.66524,1.98356
819.63554,1.98403
818.60585,1.98454
817.57616,1.98509
816.54647,1.98565
815.51677,1.98619
814.48708,1.98669
813.45739,1.98713
812.42769,1.98749
811.39800,1.98778
810.36831,1.98801
809.33862,1.98815
808.30892,1.98816
807.27923,1.98806
806.24954,1.98791
805.21984,1.98772
804.19015,1.98750
803.16046,1.98731
802.13077,1.98718
801.10107,1.98714
800.07138,1.98721
799.04169,1.98739
798.01199,1.98771
796.98230,1.98816
795.95261,1.98871
794.92292,1.98931
793.89322,1.98993
792.86353,1.99051
791.83384,1.99103
790.80414,1.99150
789.77445,1.99192
788.74476,1.99227
787.71507,1.99260
786.68537,1.99292
785.65568,1.99320
784.62599,1.99340
783.59629,1.99358
782.56660,1.99379
781.53691,1.99405
780.50721,1.99438
779.47752,1.99474
778.44783,1.99518
777.41814,1.99573
776.38844,1.99637
775.35875,1.99707
774.32906,1.99780
773.29936,1.99854
772.26967,1.99925
771.23998,1.99986
770.21029,2.00033
769.18059,2.00065
768.15090,2.00082
767.12121,2.00086
766.09151,2.00081
765.06182,2.00069
764.03213,2.00053
763.00244,2.00036
761.97274,2.00016
760.94305,1.99994
759.91336,1.99972
758.88366,1.99953
757.85397,1.99936
756.82428,1.99916
755.79459,1.99892
754.76489,1.99866
753.73520,1.99847
752.70551,1.99838
751.67581,1.99836
750.64612,1.99838
749.61643,1.99843
748.58674,1.99853
747.55704,1.99862
746.52735,1.99870
745.49766,1.99879
744.46796,1.99892
743.43827,1.99906
742.40858,1.99927
741.37888,1.99956
740.34919,1.99996
739.31950,2.00044
738.28981,2.00095
737.26011,2.00144
736.23042,2.00188
735.20073,2.00226
734.17103,2.00257
733.14134,2.00274
732.11165,2.00278
731.08196,2.00271
730.05226,2.00262
729.02257,2.00258
727.99288,2.00257
726.96318,2.00254
725.93349,2.00249
724.90380,2.00245
723.87411,2.00243
722.84441,2.00241
721.81472,2.00243
720.78503,2.00251
719.75533,2.00268
718.72564,2.00299
717.69595,2.00347
716.66626,2.00408
715.63656,2.00479
714.60687,2.00554
713.57718,2.00629
712.54748,2.00701
711.51779,2.00770
710.48810,2.00834
709.45841,2.00893
708.42871,2.00936
707.39902,2.00961
706.36933,2.00970
705.33963,2.00972
704.30994,2.00967
703.28025,2.00951
702.25055,2.00914
701.22086,2.00857
700.19117,2.00781
699.16148,2.00689
698.13178,2.00583
697.10209,2.00469
696.07240,2.00359
695.04270,2.00266
694.01301,2.00198
692.98332,2.00154
691.95363,2.00127
690.92393,2.00118
689.89424,2.00132
688.86455,2.00173
687.83485,2.00240
686.80516,2.00331
685.77547,2.00439
684.74578,2.00556
683.71608,2.00672
682.68639,2.00788
681.65670,2.00916
680.62700,2.01057
679.59731,2.01193
678.56762,2.01305
677.53793,2.01383
676.50823,2.01424
675.47854,2.01430
674.44885,2.01403
673.41915,2.01348
672.38946,2.01272
671.35977,2.01182
670.33008,2.01084
669.30038,2.00977
668.27069,2.00850
667.24100,2.00693
666.21130,2.00517
665.18161,2.00334
664.15192,2.00156
663.12222,1.99982
662.09253,1.99806
661.06284,1.99626
660.03315,1.99445
659.00345,1.99270
657.97376,1.99112
656.94407,1.98974
655.91437,1.98843
654.88468,1.98706
653.85499,1.98564
652.82530,1.98420
651.79560,1.98277
650.76591,1.98145
649.73622,1.98035
648.70652,1.97944
647.67683,1.97868
646.64714,1.97804
645.61745,1.97758
644.58775,1.97724
643.55806,1.97693
642.52837,1.97663
641.49867,1.97652
640.46898,1.97669
639.43929,1.97710
638.40960,1.97760
637.37990,1.97806
636.35021,1.97843
635.32052,1.97879
634.29082,1.97910
633.26113,1.97932
632.23144,1.97941
631.20175,1.97936
630.17205,1.97923
629.14236,1.97897
628.11267,1.97847
627.08297,1.97767
626.05328,1.97665
625.02359,1.97535
623.99389,1.97369
622.96420,1.97199
621.93451,1.97032
620.90482,1.96875
619.87512,1.96730
618.84543,1.96594
617.81574,1.96478
616.78604,1.96388
615.75635,1.96321
614.72666,1.96269
613.69697,1.96230
612.66727,1.96202
611.63758,1.96188
610.60789,1.96188
609.57819,1.96188
608.54850,1.96188
607.51881,1.96188
606.48912,1.96188
605.45942,1.96188
604.42973,1.96188
603.40004,1.96188
602.37034,1.96188
601.34065,1.96188
600.31096,1.96188
599.28127,1.96188
