5997.96112,1.47159
5996.93142,1.47159
5995.90173,1.47159
5994.87204,1.47159
5993.84235,1.47159
5992.81265,1.47159
5991.78296,1.47159
5990.75327,1.47159
5989.72357,1.47159
5988.69388,1.47159
5987.66419,1.47159
5986.63450,1.47159
5985.60480,1.47159
5984.57511,1.47145
5983.54542,1.47121
5982.51572,1.47094
5981.48603,1.47068
5980.45634,1.47047
5979.42665,1.47034
5978.39695,1.47017
5977.36726,1.46984
5976.33757,1.46936
5975.30787,1.46881
5974.27818,1.46821
5973.24849,1.46761
5972.21879,1.46701
5971.18910,1.46642
5970.15941,1.46579
5969.12972,1.46512
5968.10002,1.46442
5967.07033,1.46374
5966.04064,1.46308
5965.01094,1.46250
5963.98125,1.46213
5962.95156,1.46212
5961.92187,1.46247
5960.89217,1.46304
5959.86248,1.46378
5958.83279,1.46481
5957.80309,1.46620
5956.77340,1.46792
5955.74371,1.46991
5954.71402,1.47206
5953.68432,1.47413
5952.65463,1.47606
5951.62494,1.47802
5950.59524,1.48004
5949.56555,1.48197
5948.53586,1.48370
5947.50617,1.48513
5946.47647,1.48623
5945.44678,1.48706
5944.41709,1.48763
5943.38739,1.48792
5942.35770,1.48790
5941.32801,1.48755
5940.29831,1.48705
5939.26862,1.48663
5938.23893,1.48639
5937.20924,1.48626
5936.17954,1.48618
5935.14985,1.48619
5934.12016,1.48635
5933.09046,1.48670
5932.06077,1.48726
5931.03108,1.48804
5930.00139,1.48896
5928.97169,1.48994
5927.94200,1.49105
5926.91231,1.49232
5925.88261,1.49357
5924.85292,1.49458
5923.82323,1.49532
5922.79354,1.49590
5921.76384,1.49641
5920.73415,1.49685
5919.70446,1.49712
5918.67476,1.49716
5917.64507,1.49695
5916.61538,1.49663
5915.58569,1.49639
5914.55599,1.49627
5913.52630,1.49619
5912.49661,1.49610
5911.46691,1.49602
5910.43722,1.49603
5909.40753,1.49616
5908.37784,1.49646
5907.34814,1.49699
5906.31845,1.49773
5905.28876,1.49856
5904.25906,1.49932
5903.22937,1.49998
5902.19968,1.50052
5901.16998,1.50082
5900.14029,1.50090
5899.11060,1.50094
5898.08091,1.50102
5897.05121,1.50111
5896.02152,1.50111
5894.99183,1.50097
5893.96213,1.50073
5892.93244,1.50050
5891.90275,1.50037
5890.87306,1.50039
5889.84336,1.50052
5888.81367,1.50076
5887.78398,1.50115
5886.75428,1.50173
5885.72459,1.50242
5884.69490,1.50316
5883.66521,1.50398
5882.63551,1.50484
5881.60582,1.50561
5880.57613,1.50611
5879.54643,1.50627
5878.51674,1.50622
5877.48705,1.50601
5876.45736,1.50567
5875.42766,1.50526
5874.39797,1.50483
5873.36828,1.50432
5872.33858,1.50365
5871.30889,1.50287
5870.27920,1.50214
5869.24951,1.50162
5868.21981,1.50136
5867.19012,1.50142
5866.16043,1.50176
5865.13073,1.50231
5864.10104,1.50297
5863.07135,1.50372
5862.04165,1.50452
5861.01196,1.50534
5859.98227,1.50618
5858.95258,1.50704
5857.92288,1.50787
5856.89319,1.50863
5855.86350,1.50925
5854.83380,1.50977
5853.80411,1.51028
5852.77442,1.51081
5851.74473,1.51141
5850.71503,1.51207
5849.68534,1.51277
5848.65565,1.51347
5847.62595,1.51421
5846.59626,1.51505
5845.56657,1.51598
5844.53688,1.51692
5843.50718,1.51778
5842.47749,1.51844
5841.44780,1.51883
5840.41810,1.51893
5839.38841,1.51881
5838.35872,1.51857
5837.32903,1.51823
5836.29933,1.51778
5835.26964,1.51720
5834.23995,1.51655
5833.21025,1.51590
5832.18056,1.51538
5831.15087,1.51504
5830.12118,1.51495
5829.09148,1.51516
5828.06179,1.51573
5827.03210,1.51670
5826.00240,1.51804
5824.97271,1.51966
5823.94302,1.52138
5822.91332,1.52309
5821.88363,1.52471
5820.85394,1.52612
5819.82425,1.52723
5818.79455,1.52797
5817.76486,1.52836
5816.73517,1.52843
5815.70547,1.52827
5814.67578,1.52790
5813.64609,1.52729
5812.61640,1.52640
5811.58670,1.52529
5810.55701,1.52412
5809.52732,1.52312
5808.49762,1.52246
5807.46793,1.52220
5806.43824,1.52228
5805.40855,1.52266
5804.37885,1.52336
5803.34916,1.52444
5802.31947,1.52585
5801.28977,1.52744
5800.26008,1.52905
5799.23039,1.53051
5798.20070,1.53181
5797.17100,1.53294
5796.14131,1.53382
5795.11162,1.53440
5794.08192,1.53475
5793.05223,1.53490
5792.02254,1.53488
5790.99285,1.53466
5789.96315,1.53417
5788.93346,1.53340
5787.90377,1.53243
5786.87407,1.53144
5785.84438,1.53062
5784.81469,1.53008
5783.78499,1.52977
5782.75530,1.52963
5781.72561,1.52961
5780.69592,1.52975
5779.66622,1.53011
5778.63653,1.53063
5777.60684,1.53120
5776.57714,1.53176
5775.54745,1.53225
5774.51776,1.53264
5773.48807,1.53294
5772.45837,1.53317
5771.42868,1.53330
5770.39899,1.53341
5769.36929,1.53359
5768.33960,1.53384
5767.30991,1.53403
5766.28022,1.53410
5765.25052,1.53407
5764.22083,1.53401
5763.19114,1.53408
5762.16144,1.53437
5761.13175,1.53495
5760.10206,1.53578
5759.07237,1.53677
5758.04267,1.53785
5757.01298,1.53899
5755.98329,1.54017
5754.95359,1.54134
5753.92390,1.54245
5752.89421,1.54348
5751.86452,1.54437
5750.83482,1.54503
5749.80513,1.54543
5748.77544,1.54562
5747.74574,1.54560
5746.71605,1.54534
5745.68636,1.54492
5744.65666,1.54434
5743.62697,1.54357
5742.59728,1.54259
5741.56759,1.54157
5740.53789,1.54065
5739.50820,1.53986
5738.47851,1.53925
5737.44881,1.53887
5736.41912,1.53873
5735.38943,1.53876
5734.35974,1.53888
5733.33004,1.53909
5732.30035,1.53943
5731.27066,1.53989
5730.24096,1.54052
5729.21127,1.54134
5728.18158,1.54228
5727.15189,1.54322
5726.12219,1.54413
5725.09250,1.54504
5724.06281,1.54596
5723.03311,1.54685
5722.00342,1.54766
5720.97373,1.54841
5719.94404,1.54911
5718.91434,1.54970
5717.88465,1.55028
5716.85496,1.55094
5715.82526,1.55162
5714.79557,1.55220
5713.76588,1.55266
5712.73619,1.55306
5711.70649,1.55340
5710.67680,1.55368
5709.64711,1.55388
5708.61741,1.55398
5707.58772,1.55394
5706.55803,1.55379
5705.52833,1.55360
5704.49864,1.55335
5703.46895,1.55299
5702.43926,1.55248
5701.40956,1.55190
5700.37987,1.55126
5699.35018,1.55061
5698.32048,1.54998
5697.29079,1.54934
5696.26110,1.54865
5695.23141,1.54793
5694.20171,1.54725
5693.17202,1.54670
5692.14233,1.54635
5691.11263,1.54615
5690.08294,1.54610
5689.05325,1.54631
5688.02356,1.54685
5686.99386,1.54765
5685.96417,1.54860
5684.93448,1.54959
5683.90478,1.55051
5682.87509,1.55139
5681.84540,1.55227
5680.81571,1.55313
5679.78601,1.55394
5678.75632,1.55465
5677.72663,1.55526
5676.69693,1.55580
5675.66724,1.55631
5674.63755,1.55683
5673.60786,1.55738
5672.57816,1.55783
5671.54847,1.55811
5670.51878,1.55831
5669.48908,1.55857
5668.45939,1.55894
5667.42970,1.55941
5666.40000,1.55994
5665.37031,1.56059
5664.34062,1.56129
5663.31093,1.56190
5662.28123,1.56228
5661.25154,1.56246
5660.22185,1.56243
5659.19215,1.56221
5658.16246,1.56180
5657.13277,1.56115
5656.10308,1.56027
5655.07338,1.55923
5654.04369,1.55812
5653.01400,1.55702
5651.98430,1.55602
5650.95461,1.55515
5649.92492,1.55444
5648.89523,1.55384
5647.86553,1.55330
5646.83584,1.55293
5645.80615,1.55284
5644.77645,1.55309
5643.74676,1.55355
5642.71707,1.55409
5641.68738,1.55475
5640.65768,1.55554
5639.62799,1.55635
5638.59830,1.55705
5637.56860,1.55766
5636.53891,1.55819
5635.50922,1.55858
5634.47952,1.55873
5633.44983,1.55860
5632.42014,1.55823
5631.39045,1.55768
5630.36075,1.55707
5629.33106,1.55643
5628.30137,1.55578
5627.27167,1.55514
5626.24198,1.55462
5625.21229,1.55429
5624.18260,1.55418
5623.15290,1.55432
5622.12321,1.55467
5621.09352,1.55517
5620.06382,1.55575
5619.03413,1.55635
5618.00444,1.55697
5616.97475,1.55770
5615.94505,1.55852
5614.91536,1.55927
5613.88567,1.55989
5612.85597,1.56037
5611.82628,1.56076
5610.79659,1.56103
5609.76690,1.56122
5608.73720,1.56136
5607.70751,1.56149
5606.67782,1.56163
5605.64812,1.56182
5604.61843,1.56214
5603.58874,1.56266
5602.55905,1.56347
5601.52935,1.56456
5600.49966,1.56580
5599.46997,1.56708
5598.44027,1.56831
5597.41058,1.56941
5596.38089,1.57035
5595.35119,1.57116
5594.32150,1.57180
5593.29181,1.57228
5592.26212,1.57263
5591.23242,1.57280
5590.20273,1.57274
5589.17304,1.57251
5588.14334,1.57218
5587.11365,1.57180
5586.08396,1.57142
5585.05427,1.57107
5584.02457,1.57076
5582.99488,1.57049
5581.96519,1.57031
5580.93549,1.57029
5579.90580,1.57046
5578.87611,1.57076
5577.84642,1.57110
5576.81672,1.57139
5575.78703,1.57160
5574.75734,1.57178
5573.72764,1.57192
5572.69795,1.57196
5571.66826,1.57192
5570.63857,1.57181
5569.60887,1.57164
5568.57918,1.57145
5567.54949,1.57132
5566.51979,1.57125
5565.49010,1.57127
5564.46041,1.57139
5563.43072,1.57155
5562.40102,1.57176
5561.37133,1.57201
5560.34164,1.57225
5559.31194,1.57247
5558.28225,1.57269
5557.25256,1.57293
5556.22286,1.57321
5555.19317,1.57348
5554.16348,1.57370
5553.13379,1.57383
5552.10409,1.57390
5551.07440,1.57395
5550.04471,1.57395
5549.01501,1.57388
5547.98532,1.57376
5546.95563,1.57370
5545.92594,1.57374
5544.89624,1.57392
5543.86655,1.57431
5542.83686,1.57491
5541.80716,1.57565
5540.77747,1.57645
5539.74778,1.57722
5538.71809,1.57791
5537.68839,1.57850
5536.65870,1.57900
5535.62901,1.57941
5534.59931,1.57976
5533.56962,1.58007
5532.53993,1.58033
5531.51024,1.58054
5530.48054,1.58067
5529.45085,1.58068
5528.42116,1.58059
5527.39146,1.58046
5526.36177,1.58029
5525.33208,1.58008
5524.30239,1.57993
5523.27269,1.57992
5522.24300,1.58009
5521.21331,1.58041
5520.18361,1.58079
5519.15392,1.58112
5518.12423,1.58135
5517.09453,1.58144
5516.06484,1.58139
5515.03515,1.58118
5514.00546,1.58081
5512.97576,1.58038
5511.94607,1.57995
5510.91638,1.57954
5509.88668,1.57916
5508.85699,1.57880
5507.82730,1.57847
5506.79761,1.57822
5505.76791,1.57801
5504.73822,1.57788
5503.70853,1.57789
5502.67883,1.57805
5501.64914,1.57832
5500.61945,1.57880
5499.58976,1.57952
5498.56006,1.58044
5497.53037,1.58146
5496.50068,1.58243
5495.47098,1.58325
5494.44129,1.58387
5493.41160,1.58433
5492.38191,1.58468
5491.35221,1.58492
5490.32252,1.58506
5489.29283,1.58513
5488.26313,1.58523
5487.23344,1.58539
5486.20375,1.58553
5485.17406,1.58557
5484.14436,1.58552
5483.11467,1.58542
5482.08498,1.58534
5481.05528,1.58530
5480.02559,1.58534
5478.99590,1.58548
5477.96620,1.58572
5476.93651,1.58602
5475.90682,1.58643
5474.87713,1.58692
5473.84743,1.58742
5472.81774,1.58790
5471.78805,1.58829
5470.75835,1.58852
5469.72866,1.58857
5468.69897,1.58850
5467.66928,1.58836
5466.63958,1.58812
5465.60989,1.58781
5464.58020,1.58745
5463.55050,1.58704
5462.52081,1.58656
5461.49112,1.58594
5460.46143,1.58524
5459.43173,1.58454
5458.40204,1.58394
5457.37235,1.58348
5456.34265,1.58312
5455.31296,1.58288
5454.28327,1.58282
5453.25358,1.58291
5452.22388,1.58311
5451.19419,1.58345
5450.16450,1.58393
5449.13480,1.58453
5448.10511,1.58521
5447.07542,1.58586
5446.04573,1.58645
5445.01603,1.58704
5443.98634,1.58764
5442.95665,1.58818
5441.92695,1.58859
5440.89726,1.58885
5439.86757,1.58890
5438.83787,1.58871
5437.80818,1.58835
5436.77849,1.58790
5435.74880,1.58735
5434.71910,1.58673
5433.68941,1.58611
5432.65972,1.58546
5431.63002,1.58477
5430.60033,1.58410
5429.57064,1.58351
5428.54095,1.58297
5427.51125,1.58250
5426.48156,1.58216
5425.45187,1.58201
5424.42217,1.58207
5423.39248,1.58232
5422.36279,1.58272
5421.33310,1.58329
5420.30340,1.58398
5419.27371,1.58467
5418.24402,1.58525
5417.21432,1.58573
5416.18463,1.58609
5415.15494,1.58635
5414.12525,1.58662
5413.09555,1.58698
5412.06586,1.58739
5411.03617,1.58777
5410.00647,1.58819
5408.97678,1.58867
5407.94709,1.58912
5406.91740,1.58948
5405.88770,1.58980
5404.85801,1.59012
5403.82832,1.59047
5402.79862,1.59087
5401.76893,1.59133
5400.73924,1.59189
5399.70954,1.59251
5398.67985,1.59314
5397.65016,1.59374
5396.62047,1.59431
5395.59077,1.59477
5394.56108,1.59508
5393.53139,1.59532
5392.50169,1.59559
5391.47200,1.59600
5390.44231,1.59656
5389.41262,1.59731
5388.38292,1.59818
5387.35323,1.59912
5386.32354,1.60013
5385.29384,1.60124
5384.26415,1.60237
5383.23446,1.60335
5382.20477,1.60415
5381.17507,1.60480
5380.14538,1.60525
5379.11569,1.60542
5378.08599,1.60529
5377.05630,1.60490
5376.02661,1.60431
5374.99692,1.60352
5373.96722,1.60253
5372.93753,1.60139
5371.90784,1.60014
5370.87814,1.59879
5369.84845,1.59743
5368.81876,1.59616
5367.78906,1.59514
5366.75937,1.59437
5365.72968,1.59377
5364.69999,1.59332
5363.67029,1.59308
5362.64060,1.59314
5361.61091,1.59355
5360.58121,1.59429
5359.55152,1.59522
5358.52183,1.59629
5357.49214,1.59746
5356.46244,1.59861
5355.43275,1.59968
5354.40306,1.60073
5353.37336,1.60188
5352.34367,1.60312
5351.31398,1.60436
5350.28429,1.60555
5349.25459,1.60671
5348.22490,1.60784
5347.19521,1.60887
5346.16551,1.60975
5345.13582,1.61044
5344.10613,1.61099
5343.07644,1.61141
5342.04674,1.61160
5341.01705,1.61151
5339.98736,1.61121
5338.95766,1.61080
5337.92797,1.61035
5336.89828,1.60994
5335.86859,1.60951
5334.83889,1.60903
5333.80920,1.60852
5332.77951,1.60801
5331.74981,1.60755
5330.72012,1.60725
5329.69043,1.60717
5328.66073,1.60728
5327.63104,1.60755
5326.60135,1.60796
5325.57166,1.60855
5324.54196,1.60933
5323.51227,1.61018
5322.48258,1.61100
5321.45288,1.61178
5320.42319,1.61255
5319.39350,1.61329
5318.36381,1.61392
5317.33411,1.61433
5316.30442,1.61454
5315.27473,1.61460
5314.24503,1.61464
5313.21534,1.61480
5312.18565,1.61512
5311.15596,1.61555
5310.12626,1.61613
5309.09657,1.61694
5308.06688,1.61805
5307.03718,1.61946
5306.00749,1.62113
5304.97780,1.62300
5303.94811,1.62500
5302.91841,1.62713
5301.88872,1.62931
5300.85903,1.63144
5299.82933,1.63343
5298.79964,1.63524
5297.76995,1.63685
5296.74026,1.63831
5295.71056,1.63957
5294.68087,1.64054
5293.65118,1.64116
5292.62148,1.64153
5291.59179,1.64176
5290.56210,1.64197
5289.53240,1.64221
5288.50271,1.64248
5287.47302,1.64275
5286.44333,1.64302
5285.41363,1.64334
5284.38394,1.64377
5283.35425,1.64431
5282.32455,1.64488
5281.29486,1.64539
5280.26517,1.64577
5279.23548,1.64602
5278.20578,1.64614
5277.17609,1.64616
5276.14640,1.64610
5275.11670,1.64601
5274.08701,1.64594
5273.05732,1.64598
5272.02763,1.64618
5270.99793,1.64650
5269.96824,1.64697
5268.93855,1.64769
5267.90885,1.64875
5266.87916,1.65012
5265.84947,1.65174
5264.81978,1.65356
5263.79008,1.65558
5262.76039,1.65780
5261.73070,1.66016
5260.70100,1.66263
5259.67131,1.66518
5258.64162,1.66780
5257.61193,1.67040
5256.58223,1.67294
5255.55254,1.67539
5254.52285,1.67773
5253.49315,1.67998
5252.46346,1.68215
5251.43377,1.68421
5250.40407,1.68611
5249.37438,1.68784
5248.34469,1.68942
5247.31500,1.69079
5246.28530,1.69186
5245.25561,1.69268
5244.22592,1.69335
5243.19622,1.69384
5242.16653,1.69410
5241.13684,1.69418
5240.10715,1.69415
5239.07745,1.69402
5238.04776,1.69385
5237.01807,1.69363
5235.98837,1.69343
5234.95868,1.69334
5233.92899,1.69342
5232.89930,1.69367
5231.86960,1.69400
5230.83991,1.69440
5229.81022,1.69495
5228.78052,1.69568
5227.75083,1.69654
5226.72114,1.69745
5225.69145,1.69835
5224.66175,1.69916
5223.63206,1.69987
5222.60237,1.70045
5221.57267,1.70095
5220.54298,1.70146
5219.51329,1.70195
5218.48360,1.70233
5217.45390,1.70263
5216.42421,1.70292
5215.39452,1.70328
5214.36482,1.70375
5213.33513,1.70435
5212.30544,1.70500
5211.27574,1.70569
5210.24605,1.70640
5209.21636,1.70709
5208.18667,1.70773
5207.15697,1.70832
5206.12728,1.70893
5205.09759,1.70958
5204.06789,1.71015
5203.03820,1.71056
5202.00851,1.71082
5200.97882,1.71095
5199.94912,1.71103
5198.91943,1.71111
5197.88974,1.71127
5196.86004,1.71155
5195.83035,1.71192
5194.80066,1.71235
5193.77097,1.71292
5192.74127,1.71374
5191.71158,1.71483
5190.68189,1.71621
5189.65219,1.71778
5188.62250,1.71938
5187.59281,1.72097
5186.56312,1.72254
5185.53342,1.72408
5184.50373,1.72559
5183.47404,1.72712
5182.44434,1.72856
5181.41465,1.72970
5180.38496,1.73041
5179.35527,1.73065
5178.32557,1.73047
5177.29588,1.72995
5176.26619,1.72916
5175.23649,1.72811
5174.20680,1.72681
5173.17711,1.72535
5172.14741,1.72380
5171.11772,1.72219
5170.08803,1.72055
5169.05834,1.71898
5168.02864,1.71754
5166.99895,1.71625
5165.96926,1.71513
5164.93956,1.71421
5163.90987,1.71357
5162.88018,1.71335
5161.85049,1.71356
5160.82079,1.71411
5159.79110,1.71495
5158.76141,1.71597
5157.73171,1.71698
5156.70202,1.71788
5155.67233,1.71868
5154.64264,1.71941
5153.61294,1.72008
5152.58325,1.72071
5151.55356,1.72129
5150.52386,1.72172
5149.49417,1.72194
5148.46448,1.72199
5147.43479,1.72184
5146.40509,1.72150
5145.37540,1.72100
5144.34571,1.72039
5143.31601,1.71971
5142.28632,1.71896
5141.25663,1.71818
5140.22694,1.71743
5139.19724,1.71674
5138.16755,1.71608
5137.13786,1.71540
5136.10816,1.71463
5135.07847,1.71382
5134.04878,1.71302
5133.01908,1.71228
5131.98939,1.71160
5130.95970,1.71099
5129.93001,1.71048
5128.90031,1.71011
5127.87062,1.70984
5126.84093,1.70959
5125.81123,1.70925
5124.78154,1.70880
5123.75185,1.70833
5122.72216,1.70792
5121.69246,1.70758
5120.66277,1.70725
5119.63308,1.70692
5118.60338,1.70660
5117.57369,1.70629
5116.54400,1.70600
5115.51431,1.70576
5114.48461,1.70558
5113.45492,1.70546
5112.42523,1.70539
5111.39553,1.70538
5110.36584,1.70549
5109.33615,1.70573
5108.30646,1.70601
5107.27676,1.70622
5106.24707,1.70634
5105.21738,1.70643
5104.18768,1.70646
5103.15799,1.70637
5102.12830,1.70610
5101.09861,1.70562
5100.06891,1.70496
5099.03922,1.70425
5098.00953,1.70353
5096.97983,1.70278
5095.95014,1.70203
5094.92045,1.70137
5093.89075,1.70084
5092.86106,1.70047
5091.83137,1.70031
5090.80168,1.70041
5089.77198,1.70071
5088.74229,1.70116
5087.71260,1.70174
5086.68290,1.70242
5085.65321,1.70310
5084.62352,1.70359
5083.59383,1.70382
5082.56413,1.70386
5081.53444,1.70379
5080.50475,1.70363
5079.47505,1.70334
5078.44536,1.70285
5077.41567,1.70213
5076.38598,1.70122
5075.35628,1.70020
5074.32659,1.69919
5073.29690,1.69820
5072.26720,1.69727
5071.23751,1.69643
5070.20782,1.69571
5069.17813,1.69514
5068.14843,1.69478
5067.11874,1.69461
5066.08905,1.69461
5065.05935,1.69476
5064.02966,1.69502
5062.99997,1.69530
5061.97027,1.69547
5060.94058,1.69545
5059.91089,1.69524
5058.88120,1.69499
5057.85150,1.69488
5056.82181,1.69491
5055.79212,1.69502
5054.76242,1.69512
5053.73273,1.69521
5052.70304,1.69529
5051.67335,1.69544
5050.64365,1.69567
5049.61396,1.69600
5048.58427,1.69636
5047.55457,1.69674
5046.52488,1.69714
5045.49519,1.69754
5044.46550,1.69787
5043.43580,1.69805
5042.40611,1.69807
5041.37642,1.69794
5040.34672,1.69765
5039.31703,1.69712
5038.28734,1.69632
5037.25765,1.69531
5036.22795,1.69418
5035.19826,1.69307
5034.16857,1.69206
5033.13887,1.69115
5032.10918,1.69024
5031.07949,1.68932
5030.04980,1.68842
5029.02010,1.68759
5027.99041,1.68688
5026.96072,1.68634
5025.93102,1.68599
5024.90133,1.68581
5023.87164,1.68573
5022.84194,1.68571
5021.81225,1.68570
5020.78256,1.68555
5019.75287,1.68518
5018.72317,1.68463
5017.69348,1.68397
5016.66379,1.68320
5015.63409,1.68234
5014.60440,1.68146
5013.57471,1.68055
5012.54502,1.67960
5011.51532,1.67862
5010.48563,1.67764
5009.45594,1.67666
5008.42624,1.67563
5007.39655,1.67459
5006.36686,1.67364
5005.33717,1.67285
5004.30747,1.67224
5003.27778,1.67185
5002.24809,1.67172
5001.21839,1.67186
5000.18870,1.67219
4999.15901,1.67265
4998.12932,1.67321
4997.09962,1.67383
4996.06993,1.67442
4995.04024,1.67497
4994.01054,1.67550
4992.98085,1.67602
4991.95116,1.67651
4990.92147,1.67700
4989.89177,1.67744
4988.86208,1.67772
4987.83239,1.67780
4986.80269,1.67775
4985.77300,1.67760
4984.74331,1.67731
4983.71361,1.67687
4982.68392,1.67631
4981.65423,1.67567
4980.62454,1.67499
4979.59484,1.67428
4978.56515,1.67358
4977.53546,1.67292
4976.50576,1.67231
4975.47607,1.67174
4974.44638,1.67120
4973.41669,1.67073
4972.38699,1.67030
4971.35730,1.66993
4970.32761,1.66968
4969.29791,1.66957
4968.26822,1.66959
4967.23853,1.66977
4966.20884,1.67011
4965.17914,1.67055
4964.14945,1.67102
4963.11976,1.67152
4962.09006,1.67205
4961.06037,1.67257
4960.03068,1.67302
4959.00099,1.67330
4957.97129,1.67337
4956.94160,1.67326
4955.91191,1.67301
4954.88221,1.67262
4953.85252,1.67205
4952.82283,1.67130
4951.79314,1.67041
4950.76344,1.66946
4949.73375,1.66849
4948.70406,1.66760
4947.67436,1.66682
4946.64467,1.66622
4945.61498,1.66582
4944.58528,1.66566
4943.55559,1.66576
4942.52590,1.66617
4941.49621,1.66687
4940.46651,1.66778
4939.43682,1.66883
4938.40713,1.66999
4937.37743,1.67126
4936.34774,1.67260
4935.31805,1.67388
4934.28836,1.67501
4933.25866,1.67593
4932.22897,1.67668
4931.19928,1.67725
4930.16958,1.67758
4929.13989,1.67769
4928.11020,1.67762
4927.08051,1.67744
4926.05081,1.67721
4925.02112,1.67692
4923.99143,1.67661
4922.96173,1.67629
4921.93204,1.67599
4920.90235,1.67579
4919.87266,1.67573
4918.84296,1.67581
4917.81327,1.67601
4916.78358,1.67629
4915.75388,1.67660
4914.72419,1.67695
4913.69450,1.67734
4912.66481,1.67776
4911.63511,1.67819
4910.60542,1.67857
4909.57573,1.67885
4908.54603,1.67906
4907.51634,1.67931
4906.48665,1.67961
4905.45695,1.68000
4904.42726,1.68047
4903.39757,1.68099
4902.36788,1.68156
4901.33818,1.68211
4900.30849,1.68266
4899.27880,1.68322
4898.24910,1.68377
4897.21941,1.68427
4896.18972,1.68470
4895.16003,1.68504
4894.13033,1.68524
4893.10064,1.68530
4892.07095,1.68520
4891.04125,1.68496
4890.01156,1.68457
4888.98187,1.68401
4887.95218,1.68333
4886.92248,1.68260
4885.89279,1.68186
4884.86310,1.68114
4883.83340,1.68051
4882.80371,1.68003
4881.77402,1.67972
4880.74433,1.67957
4879.71463,1.67959
4878.68494,1.67972
4877.65525,1.67995
4876.62555,1.68026
4875.59586,1.68065
4874.56617,1.68110
4873.53648,1.68155
4872.50678,1.68199
4871.47709,1.68239
4870.44740,1.68276
4869.41770,1.68309
4868.38801,1.68339
4867.35832,1.68367
4866.32862,1.68393
4865.29893,1.68411
4864.26924,1.68421
4863.23955,1.68428
4862.20985,1.68433
4861.18016,1.68431
4860.15047,1.68422
4859.12077,1.68412
4858.09108,1.68403
4857.06139,1.68399
4856.03170,1.68399
4855.00200,1.68402
4853.97231,1.68401
4852.94262,1.68393
4851.91292,1.68381
4850.88323,1.68368
4849.85354,1.68357
4848.82385,1.68347
4847.79415,1.68340
4846.76446,1.68336
4845.73477,1.68336
4844.70507,1.68342
4843.67538,1.68358
4842.64569,1.68381
4841.61600,1.68399
4840.58630,1.68410
4839.55661,1.68415
4838.52692,1.68420
4837.49722,1.68427
4836.46753,1.68439
4835.43784,1.68457
4834.40815,1.68480
4833.37845,1.68505
4832.34876,1.68533
4831.31907,1.68561
4830.28937,1.68584
4829.25968,1.68604
4828.22999,1.68630
4827.20029,1.68668
4826.17060,1.68719
4825.14091,1.68778
4824.11122,1.68843
4823.08152,1.68914
4822.05183,1.68987
4821.02214,1.69060
4819.99244,1.69134
4818.96275,1.69203
4817.93306,1.69255
4816.90337,1.69288
4815.87367,1.69309
4814.84398,1.69324
4813.81429,1.69335
4812.78459,1.69341
4811.75490,1.69336
4810.72521,1.69315
4809.69552,1.69276
4808.66582,1.69224
4807.63613,1.69165
4806.60644,1.69104
4805.57674,1.69048
4804.54705,1.69007
4803.51736,1.68982
4802.48767,1.68969
4801.45797,1.68962
4800.42828,1.68960
4799.39859,1.68966
4798.36889,1.68982
4797.33920,1.69009
4796.30951,1.69047
4795.27982,1.69093
4794.25012,1.69135
4793.22043,1.69172
4792.19074,1.69209
4791.16104,1.69254
4790.13135,1.69304
4789.10166,1.69353
4788.07196,1.69399
4787.04227,1.69439
4786.01258,1.69468
4784.98289,1.69489
4783.95319,1.69508
4782.92350,1.69528
4781.89381,1.69549
4780.86411,1.69570
4779.83442,1.69582
4778.80473,1.69580
4777.77504,1.69562
4776.74534,1.69530
4775.71565,1.69491
4774.68596,1.69451
4773.65626,1.69412
4772.62657,1.69372
4771.59688,1.69325
4770.56719,1.69266
4769.53749,1.69197
4768.50780,1.69126
4767.47811,1.69063
4766.44841,1.69009
4765.41872,1.68961
4764.38903,1.68919
4763.35934,1.68887
4762.32964,1.68866
4761.29995,1.68859
4760.27026,1.68868
4759.24056,1.68896
4758.21087,1.68946
4757.18118,1.69012
4756.15148,1.69089
4755.12179,1.69175
4754.09210,1.69271
4753.06241,1.69377
4752.03271,1.69498
4751.00302,1.69631
4749.97333,1.69768
4748.94363,1.69899
4747.91394,1.70014
4746.88425,1.70109
4745.85456,1.70186
4744.82486,1.70248
4743.79517,1.70298
4742.76548,1.70335
4741.73578,1.70357
4740.70609,1.70364
4739.67640,1.70358
4738.64671,1.70341
4737.61701,1.70314
4736.58732,1.70280
4735.55763,1.70243
4734.52793,1.70207
4733.49824,1.70178
4732.46855,1.70157
4731.43886,1.70143
4730.40916,1.70138
4729.37947,1.70138
4728.34978,1.70142
4727.32008,1.70152
4726.29039,1.70163
4725.26070,1.70167
4724.23101,1.70159
4723.20131,1.70145
4722.17162,1.70130
4721.14193,1.70119
4720.11223,1.70109
4719.08254,1.70097
4718.05285,1.70079
4717.02315,1.70058
4715.99346,1.70038
4714.96377,1.70019
4713.93408,1.70001
4712.90438,1.69985
4711.87469,1.69975
4710.84500,1.69974
4709.81530,1.69984
4708.78561,1.70007
4707.75592,1.70036
4706.72623,1.70064
4705.69653,1.70085
4704.66684,1.70100
4703.63715,1.70115
4702.60745,1.70135
4701.57776,1.70155
4700.54807,1.70170
4699.51838,1.70180
4698.48868,1.70188
4697.45899,1.70193
4696.42930,1.70190
4695.39960,1.70177
4694.36991,1.70154
4693.34022,1.70129
4692.31053,1.70110
4691.28083,1.70099
4690.25114,1.70097
4689.22145,1.70101
4688.19175,1.70113
4687.16206,1.70136
4686.13237,1.70166
4685.10268,1.70200
4684.07298,1.70233
4683.04329,1.70260
4682.01360,1.70282
4680.98390,1.70301
4679.95421,1.70320
4678.92452,1.70343
4677.89482,1.70367
4676.86513,1.70381
4675.83544,1.70381
4674.80575,1.70364
4673.77605,1.70330
4672.74636,1.70280
4671.71667,1.70220
4670.68697,1.70152
4669.65728,1.70083
4668.62759,1.70019
4667.59790,1.69961
4666.56820,1.69909
4665.53851,1.69863
4664.50882,1.69823
4663.47912,1.69793
4662.44943,1.69776
4661.41974,1.69770
4660.39005,1.69771
4659.36035,1.69776
4658.33066,1.69787
4657.30097,1.69804
4656.27127,1.69825
4655.24158,1.69849
4654.21189,1.69873
4653.18220,1.69897
4652.15250,1.69916
4651.12281,1.69931
4650.09312,1.69943
4649.06342,1.69953
4648.03373,1.69964
4647.00404,1.69976
4645.97435,1.69986
4644.94465,1.70000
4643.91496,1.70018
4642.88527,1.70034
4641.85557,1.70048
4640.82588,1.70061
4639.79619,1.70078
4638.76649,1.70101
4637.73680,1.70127
4636.70711,1.70151
4635.67742,1.70167
4634.64772,1.70173
4633.61803,1.70171
4632.58834,1.70158
4631.55864,1.70133
4630.52895,1.70096
4629.49926,1.70052
4628.46957,1.70004
4627.43987,1.69956
4626.41018,1.69912
4625.38049,1.69869
4624.35079,1.69827
4623.32110,1.69789
4622.29141,1.69758
4621.26172,1.69739
4620.23202,1.69732
4619.20233,1.69730
4618.17264,1.69731
4617.14294,1.69738
4616.11325,1.69753
4615.08356,1.69781
4614.05387,1.69819
4613.02417,1.69863
4611.99448,1.69909
4610.96479,1.69952
4609.93509,1.69992
4608.90540,1.70025
4607.87571,1.70051
4606.84602,1.70067
4605.81632,1.70076
4604.78663,1.70080
4603.75694,1.70082
4602.72724,1.70082
4601.69755,1.70078
4600.66786,1.70065
4599.63816,1.70045
4598.60847,1.70027
4597.57878,1.70011
4596.54909,1.69994
4595.51939,1.69970
4594.48970,1.69937
4593.46001,1.69899
4592.43031,1.69860
4591.40062,1.69824
4590.37093,1.69793
4589.34124,1.69762
4588.31154,1.69726
4587.28185,1.69684
4586.25216,1.69636
4585.22246,1.69585
4584.19277,1.69535
4583.16308,1.69483
4582.13339,1.69432
4581.10369,1.69387
4580.07400,1.69350
4579.04431,1.69322
4578.01461,1.69302
4576.98492,1.69290
4575.95523,1.69285
4574.92554,1.69291
4573.89584,1.69311
4572.86615,1.69339
4571.83646,1.69371
4570.80676,1.69402
4569.77707,1.69433
4568.74738,1.69464
4567.71769,1.69493
4566.68799,1.69518
4565.65830,1.69534
4564.62861,1.69537
4563.59891,1.69527
4562.56922,1.69505
4561.53953,1.69473
4560.50983,1.69435
4559.48014,1.69392
4558.45045,1.69343
4557.42076,1.69295
4556.39106,1.69251
4555.36137,1.69214
4554.33168,1.69183
4553.30198,1.69162
4552.27229,1.69152
4551.24260,1.69153
4550.21291,1.69165
4549.18321,1.69188
4548.15352,1.69218
4547.12383,1.69251
4546.09413,1.69285
4545.06444,1.69321
4544.03475,1.69357
4543.00506,1.69389
4541.97536,1.69413
4540.94567,1.69430
4539.91598,1.69436
4538.88628,1.69431
4537.85659,1.69416
4536.82690,1.69393
4535.79721,1.69364
4534.76751,1.69328
4533.73782,1.69288
4532.70813,1.69248
4531.67843,1.69214
4530.64874,1.69186
4529.61905,1.69165
4528.58936,1.69152
4527.55966,1.69144
4526.52997,1.69137
4525.50028,1.69132
4524.47058,1.69130
4523.44089,1.69131
4522.41120,1.69134
4521.38150,1.69139
4520.35181,1.69147
4519.32212,1.69157
4518.29243,1.69163
4517.26273,1.69164
4516.23304,1.69161
4515.20335,1.69153
4514.17365,1.69142
4513.14396,1.69128
4512.11427,1.69111
4511.08458,1.69091
4510.05488,1.69072
4509.02519,1.69059
4507.99550,1.69057
4506.96580,1.69061
4505.93611,1.69068
4504.90642,1.69075
4503.87673,1.69083
4502.84703,1.69088
4501.81734,1.69089
4500.78765,1.69086
4499.75795,1.69083
4498.72826,1.69083
4497.69857,1.69085
4496.66888,1.69091
4495.63918,1.69102
4494.60949,1.69116
4493.57980,1.69133
4492.55010,1.69151
4491.52041,1.69170
4490.49072,1.69189
4489.46103,1.69212
4488.43133,1.69241
4487.40164,1.69280
4486.37195,1.69330
4485.34225,1.69392
4484.31256,1.69461
4483.28287,1.69534
4482.25317,1.69606
4481.22348,1.69676
4480.19379,1.69744
4479.16410,1.69807
4478.13440,1.69861
4477.10471,1.69903
4476.07502,1.69937
4475.04532,1.69968
4474.01563,1.69998
4472.98594,1.70027
4471.95625,1.70057
4470.92655,1.70087
4469.89686,1.70116
4468.86717,1.70141
4467.83747,1.70161
4466.80778,1.70178
4465.77809,1.70199
4464.74840,1.70232
4463.71870,1.70277
4462.68901,1.70329
4461.65932,1.70385
4460.62962,1.70443
4459.59993,1.70502
4458.57024,1.70566
4457.54055,1.70634
4456.51085,1.70706
4455.48116,1.70780
4454.45147,1.70856
4453.42177,1.70932
4452.39208,1.71011
4451.36239,1.71094
4450.33269,1.71184
4449.30300,1.71280
4448.27331,1.71383
4447.24362,1.71489
4446.21392,1.71595
4445.18423,1.71698
4444.15454,1.71799
4443.12484,1.71898
4442.09515,1.71996
4441.06546,1.72095
4440.03577,1.72191
4439.00607,1.72279
4437.97638,1.72356
4436.94669,1.72422
4435.91699,1.72479
4434.88730,1.72528
4433.85761,1.72569
4432.82792,1.72600
4431.79822,1.72628
4430.76853,1.72657
4429.73884,1.72686
4428.70914,1.72718
4427.67945,1.72754
4426.64976,1.72800
4425.62007,1.72858
4424.59037,1.72929
4423.56068,1.73011
4422.53099,1.73102
4421.50129,1.73201
4420.47160,1.73308
4419.44191,1.73421
4418.41222,1.73535
4417.38252,1.73647
4416.35283,1.73757
4415.32314,1.73863
4414.29344,1.73961
4413.26375,1.74051
4412.23406,1.74129
4411.20436,1.74195
4410.17467,1.74247
4409.14498,1.74287
4408.11529,1.74323
4407.08559,1.74363
4406.05590,1.74406
4405.02621,1.74448
4403.99651,1.74493
4402.96682,1.74546
4401.93713,1.74609
4400.90744,1.74678
4399.87774,1.74748
4398.84805,1.74816
4397.81836,1.74883
4396.78866,1.74949
4395.75897,1.75011
4394.72928,1.75062
4393.69959,1.75104
4392.66989,1.75140
4391.64020,1.75172
4390.61051,1.75198
4389.58081,1.75218
4388.55112,1.75233
4387.52143,1.75243
4386.49174,1.75252
4385.46204,1.75264
4384.43235,1.75284
4383.40266,1.75318
4382.37296,1.75362
4381.34327,1.75412
4380.31358,1.75471
4379.28389,1.75541
4378.25419,1.75621
4377.22450,1.75704
4376.19481,1.75786
4375.16511,1.75867
4374.13542,1.75947
4373.10573,1.76027
4372.07603,1.76102
4371.04634,1.76169
4370.01665,1.76228
4368.98696,1.76283
4367.95726,1.76336
4366.92757,1.76384
4365.89788,1.76428
4364.86818,1.76471
4363.83849,1.76513
4362.80880,1.76557
4361.77911,1.76607
4360.74941,1.76665
4359.71972,1.76732
4358.69003,1.76806
4357.66033,1.76883
4356.63064,1.76963
4355.60095,1.77048
4354.57126,1.77137
4353.54156,1.77225
4352.51187,1.77312
4351.48218,1.77394
4350.45248,1.77473
4349.42279,1.77545
4348.39310,1.77608
4347.36341,1.77662
4346.33371,1.77703
4345.30402,1.77734
4344.27433,1.77755
4343.24463,1.77763
4342.21494,1.77761
4341.18525,1.77751
4340.15556,1.77731
4339.12586,1.77705
4338.09617,1.77673
4337.06648,1.77640
4336.03678,1.77611
4335.00709,1.77587
4333.97740,1.77565
4332.94770,1.77544
4331.91801,1.77526
4330.88832,1.77511
4329.85863,1.77499
4328.82893,1.77487
4327.79924,1.77473
4326.76955,1.77453
4325.73985,1.77428
4324.71016,1.77399
4323.68047,1.77368
4322.65078,1.77331
4321.62108,1.77287
4320.59139,1.77236
4319.56170,1.77175
4318.53200,1.77103
4317.50231,1.77017
4316.47262,1.76919
4315.44293,1.76812
4314.41323,1.76697
4313.38354,1.76581
4312.35385,1.76468
4311.32415,1.76363
4310.29446,1.76264
4309.26477,1.76170
4308.23508,1.76083
4307.20538,1.76006
4306.17569,1.75940
4305.14600,1.75887
4304.11630,1.75848
4303.08661,1.75820
4302.05692,1.75804
4301.02723,1.75802
4299.99753,1.75815
4298.96784,1.75840
4297.93815,1.75878
4296.90845,1.75928
4295.87876,1.75986
4294.84907,1.76050
4293.81937,1.76115
4292.78968,1.76181
4291.75999,1.76250
4290.73030,1.76320
4289.70060,1.76389
4288.67091,1.76458
4287.64122,1.76524
4286.61152,1.76586
4285.58183,1.76645
4284.55214,1.76701
4283.52245,1.76755
4282.49275,1.76806
4281.46306,1.76854
4280.43337,1.76895
4279.40367,1.76930
4278.37398,1.76956
4277.34429,1.76975
4276.31460,1.76989
4275.28490,1.77001
4274.25521,1.77014
4273.22552,1.77030
4272.19582,1.77048
4271.16613,1.77067
4270.13644,1.77084
4269.10675,1.77100
4268.07705,1.77114
4267.04736,1.77127
4266.01767,1.77140
4264.98797,1.77153
4263.95828,1.77165
4262.92859,1.77178
4261.89890,1.77193
4260.86920,1.77212
4259.83951,1.77232
4258.80982,1.77250
4257.78012,1.77264
4256.75043,1.77272
4255.72074,1.77271
4254.69104,1.77262
4253.66135,1.77242
4252.63166,1.77213
4251.60197,1.77177
4250.57227,1.77135
4249.54258,1.77087
4248.51289,1.77032
4247.48319,1.76968
4246.45350,1.76896
4245.42381,1.76813
4244.39412,1.76720
4243.36442,1.76621
4242.33473,1.76521
4241.30504,1.76425
4240.27534,1.76336
4239.24565,1.76256
4238.21596,1.76189
4237.18627,1.76136
4236.15657,1.76099
4235.12688,1.76076
4234.09719,1.76069
4233.06749,1.76075
4232.03780,1.76090
4231.00811,1.76112
4229.97842,1.76140
4228.94872,1.76175
4227.91903,1.76216
4226.88934,1.76261
4225.85964,1.76304
4224.82995,1.76342
4223.80026,1.76372
4222.77057,1.76396
4221.74087,1.76407
4220.71118,1.76404
4219.68149,1.76392
4218.65179,1.76375
4217.62210,1.76356
4216.59241,1.76336
4215.56271,1.76318
4214.53302,1.76303
4213.50333,1.76292
4212.47364,1.76285
4211.44394,1.76280
4210.41425,1.76277
4209.38456,1.76276
4208.35486,1.76275
4207.32517,1.76274
4206.29548,1.76276
4205.26579,1.76283
4204.23609,1.76295
4203.20640,1.76308
4202.17671,1.76318
4201.14701,1.76324
4200.11732,1.76332
4199.08763,1.76344
4198.05794,1.76358
4197.02824,1.76371
4195.99855,1.76383
4194.96886,1.76399
4193.93916,1.76419
4192.90947,1.76443
4191.87978,1.76475
4190.85009,1.76513
4189.82039,1.76554
4188.79070,1.76591
4187.76101,1.76620
4186.73131,1.76641
4185.70162,1.76656
4184.67193,1.76667
4183.64224,1.76673
4182.61254,1.76674
4181.58285,1.76672
4180.55316,1.76668
4179.52346,1.76663
4178.49377,1.76657
4177.46408,1.76651
4176.43438,1.76650
4175.40469,1.76658
4174.37500,1.76672
4173.34531,1.76688
4172.31561,1.76706
4171.28592,1.76730
4170.25623,1.76760
4169.22653,1.76799
4168.19684,1.76845
4167.16715,1.76897
4166.13746,1.76947
4165.10776,1.76992
4164.07807,1.77031
4163.04838,1.77064
4162.01868,1.77094
4160.98899,1.77120
4159.95930,1.77143
4158.92961,1.77164
4157.89991,1.77183
4156.87022,1.77203
4155.84053,1.77226
4154.81083,1.77250
4153.78114,1.77272
4152.75145,1.77292
4151.72176,1.77311
4150.69206,1.77329
4149.66237,1.77344
4148.63268,1.77357
4147.60298,1.77372
4146.57329,1.77390
4145.54360,1.77412
4144.51390,1.77432
4143.48421,1.77448
4142.45452,1.77457
4141.42483,1.77461
4140.39513,1.77462
4139.36544,1.77457
4138.33575,1.77447
4137.30605,1.77433
4136.27636,1.77417
4135.24667,1.77406
4134.21698,1.77400
4133.18728,1.77397
4132.15759,1.77396
4131.12790,1.77396
4130.09820,1.77394
4129.06851,1.77392
4128.03882,1.77393
4127.00913,1.77399
4125.97943,1.77413
4124.94974,1.77435
4123.92005,1.77468
4122.89035,1.77513
4121.86066,1.77567
4120.83097,1.77623
4119.80128,1.77676
4118.77158,1.77723
4117.74189,1.77769
4116.71220,1.77815
4115.68250,1.77859
4114.65281,1.77901
4113.62312,1.77944
4112.59343,1.77991
4111.56373,1.78042
4110.53404,1.78097
4109.50435,1.78151
4108.47465,1.78201
4107.44496,1.78247
4106.41527,1.78290
4105.38557,1.78328
4104.35588,1.78364
4103.32619,1.78398
4102.29650,1.78431
4101.26680,1.78463
4100.23711,1.78495
4099.20742,1.78524
4098.17772,1.78550
4097.14803,1.78567
4096.11834,1.78574
4095.08865,1.78571
4094.05895,1.78562
4093.02926,1.78553
4091.99957,1.78546
4090.96987,1.78544
4089.94018,1.78550
4088.91049,1.78564
4087.88080,1.78585
4086.85110,1.78610
4085.82141,1.78638
4084.79172,1.78669
4083.76202,1.78702
4082.73233,1.78738
4081.70264,1.78775
4080.67295,1.78813
4079.64325,1.78854
4078.61356,1.78902
4077.58387,1.78954
4076.55417,1.79008
4075.52448,1.79063
4074.49479,1.79118
4073.46510,1.79172
4072.43540,1.79225
4071.40571,1.79277
4070.37602,1.79329
4069.34632,1.79383
4068.31663,1.79443
4067.28694,1.79508
4066.25724,1.79580
4065.22755,1.79653
4064.19786,1.79723
4063.16817,1.79786
4062.13847,1.79841
4061.10878,1.79890
4060.07909,1.79933
4059.04939,1.79969
4058.01970,1.79996
4056.99001,1.80017
4055.96032,1.80033
4054.93062,1.80048
4053.90093,1.80059
4052.87124,1.80066
4051.84154,1.80069
4050.81185,1.80073
4049.78216,1.80081
4048.75247,1.80092
4047.72277,1.80106
4046.69308,1.80123
4045.66339,1.80145
4044.63369,1.80173
4043.60400,1.80206
4042.57431,1.80241
4041.54462,1.80274
4040.51492,1.80304
4039.48523,1.80327
4038.45554,1.80345
4037.42584,1.80360
4036.39615,1.80372
4035.36646,1.80378
4034.33677,1.80377
4033.30707,1.80369
4032.27738,1.80356
4031.24769,1.80341
4030.21799,1.80322
4029.18830,1.80302
4028.15861,1.80286
4027.12891,1.80279
4026.09922,1.80283
4025.06953,1.80298
4024.03984,1.80319
4023.01014,1.80348
4021.98045,1.80384
4020.95076,1.80425
4019.92106,1.80470
4018.89137,1.80516
4017.86168,1.80562
4016.83199,1.80608
4015.80229,1.80653
4014.77260,1.80696
4013.74291,1.80735
4012.71321,1.80769
4011.68352,1.80798
4010.65383,1.80820
4009.62414,1.80831
4008.59444,1.80830
4007.56475,1.80817
4006.53506,1.80793
4005.50536,1.80762
4004.47567,1.80729
4003.44598,1.80701
4002.41629,1.80680
4001.38659,1.80663
4000.35690,1.80648
3999.32721,1.80634
3998.29751,1.80625
3997.26782,1.80622
3996.23813,1.80624
3995.20844,1.80630
3994.17874,1.80642
3993.14905,1.80660
3992.11936,1.80682
3991.08966,1.80709
3990.05997,1.80740
3989.03028,1.80775
3988.00058,1.80813
3986.97089,1.80853
3985.94120,1.80886
3984.91151,1.80909
3983.88181,1.80920
3982.85212,1.80923
3981.82243,1.80921
3980.79273,1.80917
3979.76304,1.80913
3978.73335,1.80907
3977.70366,1.80897
3976.67396,1.80880
3975.64427,1.80857
3974.61458,1.80834
3973.58488,1.80811
3972.55519,1.80788
3971.52550,1.80763
3970.49581,1.80737
3969.46611,1.80715
3968.43642,1.80697
3967.40673,1.80686
3966.37703,1.80681
3965.34734,1.80683
3964.31765,1.80691
3963.28796,1.80702
3962.25826,1.80712
3961.22857,1.80719
3960.19888,1.80725
3959.16918,1.80733
3958.13949,1.80743
3957.10980,1.80754
3956.08011,1.80765
3955.05041,1.80774
3954.02072,1.80780
3952.99103,1.80780
3951.96133,1.80779
3950.93164,1.80778
3949.90195,1.80776
3948.87225,1.80770
3947.84256,1.80761
3946.81287,1.80752
3945.78318,1.80746
3944.75348,1.80742
3943.72379,1.80738
3942.69410,1.80733
3941.66440,1.80724
3940.63471,1.80711
3939.60502,1.80693
3938.57533,1.80672
3937.54563,1.80646
3936.51594,1.80620
3935.48625,1.80595
3934.45655,1.80569
3933.42686,1.80538
3932.39717,1.80500
3931.36748,1.80457
3930.33778,1.80410
3929.30809,1.80356
3928.27840,1.80294
3927.24870,1.80231
3926.21901,1.80167
3925.18932,1.80104
3924.15963,1.80043
3923.12993,1.79986
3922.10024,1.79937
3921.07055,1.79898
3920.04085,1.79869
3919.01116,1.79850
3917.98147,1.79837
3916.95178,1.79828
3915.92208,1.79816
3914.89239,1.79805
3913.86270,1.79798
3912.83300,1.79795
3911.80331,1.79795
3910.77362,1.79788
3909.74392,1.79766
3908.71423,1.79730
3907.68454,1.79685
3906.65485,1.79631
3905.62515,1.79563
3904.59546,1.79475
3903.56577,1.79374
3902.53607,1.79273
3901.50638,1.79174
3900.47669,1.79084
3899.44700,1.79002
3898.41730,1.78926
3897.38761,1.78867
3896.35792,1.78831
3895.32822,1.78812
3894.29853,1.78796
3893.26884,1.78777
3892.23915,1.78755
3891.20945,1.78736
3890.17976,1.78727
3889.15007,1.78726
3888.12037,1.78727
3887.09068,1.78724
3886.06099,1.78709
3885.03130,1.78687
3884.00160,1.78675
3882.97191,1.78675
3881.94222,1.78678
3880.91252,1.78675
3879.88283,1.78673
3878.85314,1.78683
3877.82344,1.78694
3876.79375,1.78702
3875.76406,1.78710
3874.73437,1.78719
3873.70467,1.78733
3872.67498,1.78765
3871.64529,1.78813
3870.61559,1.78862
3869.58590,1.78902
3868.55621,1.78947
3867.52652,1.79006
3866.49682,1.79074
3865.46713,1.79141
3864.43744,1.79199
3863.40774,1.79252
3862.37805,1.79297
3861.34836,1.79336
3860.31867,1.79384
3859.28897,1.79445
3858.25928,1.79505
3857.22959,1.79553
3856.19989,1.79585
3855.17020,1.79598
3854.14051,1.79578
3853.11082,1.79518
3852.08112,1.79443
3851.05143,1.79369
3850.02174,1.79301
3848.99204,1.79241
3847.96235,1.79193
3846.93266,1.79154
3845.90297,1.79113
3844.87327,1.79063
3843.84358,1.79013
3842.81389,1.78966
3841.78419,1.78923
3840.75450,1.78876
3839.72481,1.78824
3838.69511,1.78777
3837.66542,1.78740
3836.63573,1.78720
3835.60604,1.78725
3834.57634,1.78745
3833.54665,1.78773
3832.51696,1.78802
3831.48726,1.78822
3830.45757,1.78828
3829.42788,1.78830
3828.39819,1.78841
3827.36849,1.78872
3826.33880,1.78908
3825.30911,1.78942
3824.27941,1.78976
3823.24972,1.79011
3822.22003,1.79039
3821.19034,1.79045
3820.16064,1.79030
3819.13095,1.79016
3818.10126,1.79011
3817.07156,1.79008
3816.04187,1.78994
3815.01218,1.78976
3813.98249,1.78972
3812.95279,1.78982
3811.92310,1.79004
3810.89341,1.79030
3809.86371,1.79054
3808.83402,1.79071
3807.80433,1.79075
3806.77464,1.79060
3805.74494,1.79043
3804.71525,1.79035
3803.68556,1.79029
3802.65586,1.79016
3801.62617,1.78996
3800.59648,1.78978
3799.56678,1.78975
3798.53709,1.78984
3797.50740,1.78997
3796.47771,1.79011
3795.44801,1.79033
3794.41832,1.79071
3793.38863,1.79115
3792.35893,1.79163
3791.32924,1.79216
3790.29955,1.79277
3789.26986,1.79343
3788.24016,1.79406
3787.21047,1.79462
3786.18078,1.79512
3785.15108,1.79553
3784.12139,1.79581
3783.09170,1.79599
3782.06201,1.79616
3781.03231,1.79640
3780.00262,1.79667
3778.97293,1.79694
3777.94323,1.79729
3776.91354,1.79775
3775.88385,1.79829
3774.85416,1.79892
3773.82446,1.79955
3772.79477,1.80016
3771.76508,1.80079
3770.73538,1.80153
3769.70569,1.80233
3768.67600,1.80303
3767.64631,1.80370
3766.61661,1.80440
3765.58692,1.80511
3764.55723,1.80587
3763.52753,1.80672
3762.49784,1.80764
3761.46815,1.80860
3760.43845,1.80949
3759.40876,1.81026
3758.37907,1.81103
3757.34938,1.81189
3756.31968,1.81276
3755.28999,1.81363
3754.26030,1.81455
3753.23060,1.81549
3752.20091,1.81628
3751.17122,1.81689
3750.14153,1.81737
3749.11183,1.81773
3748.08214,1.81805
3747.05245,1.81837
3746.02275,1.81858
3744.99306,1.81851
3743.96337,1.81809
3742.93368,1.81774
3741.90398,1.81756
3740.87429,1.81749
3739.84460,1.81752
3738.81490,1.81762
3737.78521,1.81779
3736.75552,1.81793
3735.72583,1.81797
3734.69613,1.81802
3733.66644,1.81831
3732.63675,1.81885
3731.60705,1.81958
3730.57736,1.82058
3729.54767,1.82180
3728.51798,1.82316
3727.48828,1.82455
3726.45859,1.82595
3725.42890,1.82735
3724.39920,1.82880
3723.36951,1.83033
3722.33982,1.83187
3721.31012,1.83330
3720.28043,1.83467
3719.25074,1.83608
3718.22105,1.83768
3717.19135,1.83936
3716.16166,1.84102
3715.13197,1.84259
3714.10227,1.84410
3713.07258,1.84550
3712.04289,1.84672
3711.01320,1.84788
3709.98350,1.84923
3708.95381,1.85086
3707.92412,1.85278
3706.89442,1.85495
3705.86473,1.85734
3704.83504,1.85984
3703.80535,1.86236
3702.77565,1.86487
3701.74596,1.86735
3700.71627,1.86983
3699.68657,1.87225
3698.65688,1.87461
3697.62719,1.87693
3696.59750,1.87924
3695.56780,1.88150
3694.53811,1.88363
3693.50842,1.88560
3692.47872,1.88744
3691.44903,1.88913
3690.41934,1.89072
3689.38965,1.89228
3688.35995,1.89380
3687.33026,1.89536
3686.30057,1.89712
3685.27087,1.89912
3684.24118,1.90129
3683.21149,1.90356
3682.18179,1.90590
3681.15210,1.90824
3680.12241,1.91048
3679.09272,1.91262
3678.06302,1.91473
3677.03333,1.91680
3676.00364,1.91874
3674.97394,1.92047
3673.94425,1.92218
3672.91456,1.92397
3671.88487,1.92577
3670.85517,1.92747
3669.82548,1.92907
3668.79579,1.93077
3667.76609,1.93267
3666.73640,1.93480
3665.70671,1.93711
3664.67702,1.93952
3663.64732,1.94198
3662.61763,1.94446
3661.58794,1.94697
3660.55824,1.94943
3659.52855,1.95180
3658.49886,1.95402
3657.46917,1.95606
3656.43947,1.95785
3655.40978,1.95945
3654.38009,1.96097
3653.35039,1.96237
3652.32070,1.96360
3651.29101,1.96468
3650.26132,1.96567
3649.23162,1.96676
3648.20193,1.96798
3647.17224,1.96929
3646.14254,1.97073
3645.11285,1.97237
3644.08316,1.97421
3643.05346,1.97611
3642.02377,1.97797
3640.99408,1.97974
3639.96439,1.98140
3638.93469,1.98296
3637.90500,1.98436
3636.87531,1.98556
3635.84561,1.98656
3634.81592,1.98735
3633.78623,1.98789
3632.75654,1.98819
3631.72684,1.98830
3630.69715,1.98824
3629.66746,1.98802
3628.63776,1.98764
3627.60807,1.98732
3626.57838,1.98720
3625.54869,1.98725
3624.51899,1.98751
3623.48930,1.98797
3622.45961,1.98861
3621.42991,1.98940
3620.40022,1.99026
3619.37053,1.99112
3618.34084,1.99202
3617.31114,1.99303
3616.28145,1.99421
3615.25176,1.99553
3614.22206,1.99691
3613.19237,1.99828
3612.16268,1.99959
3611.13299,2.00086
3610.10329,2.00207
3609.07360,2.00314
3608.04391,2.00408
3607.01421,2.00490
3605.98452,2.00562
3604.95483,2.00633
3603.92513,2.00707
3602.89544,2.00789
3601.86575,2.00869
3600.83606,2.00942
3599.80636,2.01009
3598.77667,2.01072
3597.74698,2.01134
3596.71728,2.01194
3595.68759,2.01252
3594.65790,2.01307
3593.62821,2.01365
3592.59851,2.01425
3591.56882,2.01485
3590.53913,2.01540
3589.50943,2.01586
3588.47974,2.01622
3587.45005,2.01651
3586.42036,2.01682
3585.39066,2.01716
3584.36097,2.01751
3583.33128,2.01782
3582.30158,2.01810
3581.27189,2.01834
3580.24220,2.01856
3579.21251,2.01876
3578.18281,2.01893
3577.15312,2.01907
3576.12343,2.01922
3575.09373,2.01940
3574.06404,2.01965
3573.03435,2.01996
3572.00465,2.02031
3570.97496,2.02061
3569.94527,2.02082
3568.91558,2.02092
3567.88588,2.02097
3566.85619,2.02102
3565.82650,2.02117
3564.79680,2.02145
3563.76711,2.02184
3562.73742,2.02235
3561.70773,2.02294
3560.67803,2.02351
3559.64834,2.02397
3558.61865,2.02433
3557.58895,2.02463
3556.55926,2.02492
3555.52957,2.02521
3554.49988,2.02549
3553.47018,2.02573
3552.44049,2.02590
3551.41080,2.02603
3550.38110,2.02620
3549.35141,2.02638
3548.32172,2.02653
3547.29203,2.02661
3546.26233,2.02662
3545.23264,2.02663
3544.20295,2.02673
3543.17325,2.02702
3542.14356,2.02752
3541.11387,2.02814
3540.08418,2.02879
3539.05448,2.02940
3538.02479,2.02991
3536.99510,2.03030
3535.96540,2.03060
3534.93571,2.03087
3533.90602,2.03114
3532.87632,2.03139
3531.84663,2.03159
3530.81694,2.03175
3529.78725,2.03184
3528.75755,2.03182
3527.72786,2.03168
3526.69817,2.03149
3525.66847,2.03128
3524.63878,2.03101
3523.60909,2.03068
3522.57940,2.03033
3521.54970,2.03000
3520.52001,2.02976
3519.49032,2.02963
3518.46062,2.02960
3517.43093,2.02958
3516.40124,2.02951
3515.37155,2.02939
3514.34185,2.02925
3513.31216,2.02913
3512.28247,2.02905
3511.25277,2.02906
3510.22308,2.02914
3509.19339,2.02927
3508.16370,2.02948
3507.13400,2.02980
3506.10431,2.03019
3505.07462,2.03058
3504.04492,2.03094
3503.01523,2.03126
3501.98554,2.03157
3500.95585,2.03187
3499.92615,2.03211
3498.89646,2.03229
3497.86677,2.03242
3496.83707,2.03253
3495.80738,2.03264
3494.77769,2.03273
3493.74799,2.03277
3492.71830,2.03269
3491.68861,2.03251
3490.65892,2.03225
3489.62922,2.03197
3488.59953,2.03167
3487.56984,2.03137
3486.54014,2.03110
3485.51045,2.03090
3484.48076,2.03079
3483.45107,2.03076
3482.42137,2.03076
3481.39168,2.03073
3480.36199,2.03066
3479.33229,2.03058
3478.30260,2.03050
3477.27291,2.03043
3476.24322,2.03036
3475.21352,2.03030
3474.18383,2.03024
3473.15414,2.03020
3472.12444,2.03019
3471.09475,2.03020
3470.06506,2.03019
3469.03537,2.03015
3468.00567,2.03006
3466.97598,2.02995
3465.94629,2.02986
3464.91659,2.02982
3463.88690,2.02984
3462.85721,2.02991
3461.82752,2.03006
3460.79782,2.03026
3459.76813,2.03052
3458.73844,2.03080
3457.70874,2.03107
3456.67905,2.03133
3455.64936,2.03157
3454.61966,2.03183
3453.58997,2.03211
3452.56028,2.03239
3451.53059,2.03265
3450.50089,2.03287
3449.47120,2.03302
3448.44151,2.03308
3447.41181,2.03305
3446.38212,2.03291
3445.35243,2.03265
3444.32274,2.03227
3443.29304,2.03180
3442.26335,2.03129
3441.23366,2.03076
3440.20396,2.03026
3439.17427,2.02980
3438.14458,2.02940
3437.11489,2.02905
3436.08519,2.02877
3435.05550,2.02857
3434.02581,2.02843
3432.99611,2.02833
3431.96642,2.02827
3430.93673,2.02824
3429.90704,2.02822
3428.87734,2.02823
3427.84765,2.02820
3426.81796,2.02811
3425.78826,2.02793
3424.75857,2.02768
3423.72888,2.02736
3422.69919,2.02698
3421.66949,2.02654
3420.63980,2.02606
3419.61011,2.02559
3418.58041,2.02517
3417.55072,2.02482
3416.52103,2.02456
3415.49133,2.02441
3414.46164,2.02439
3413.43195,2.02446
3412.40226,2.02459
3411.37256,2.02478
3410.34287,2.02501
3409.31318,2.02525
3408.28348,2.02548
3407.25379,2.02569
3406.22410,2.02588
3405.19441,2.02603
3404.16471,2.02614
3403.13502,2.02617
3402.10533,2.02611
3401.07563,2.02597
3400.04594,2.02576
3399.01625,2.02551
3397.98656,2.02523
3396.95686,2.02495
3395.92717,2.02473
3394.89748,2.02458
3393.86778,2.02449
3392.83809,2.02445
3391.80840,2.02449
3390.77871,2.02461
3389.74901,2.02479
3388.71932,2.02497
3387.68963,2.02515
3386.65993,2.02535
3385.63024,2.02556
3384.60055,2.02580
3383.57086,2.02608
3382.54116,2.02638
3381.51147,2.02668
3380.48178,2.02695
3379.45208,2.02719
3378.42239,2.02738
3377.39270,2.02750
3376.36300,2.02755
3375.33331,2.02757
3374.30362,2.02757
3373.27393,2.02755
3372.24423,2.02753
3371.21454,2.02750
3370.18485,2.02745
3369.15515,2.02737
3368.12546,2.02727
3367.09577,2.02718
3366.06608,2.02708
3365.03638,2.02695
3364.00669,2.02678
3362.97700,2.02659
3361.94730,2.02640
3360.91761,2.02620
3359.88792,2.02600
3358.85823,2.02579
3357.82853,2.02557
3356.79884,2.02536
3355.76915,2.02521
3354.73945,2.02511
3353.70976,2.02504
3352.68007,2.02499
3351.65038,2.02497
3350.62068,2.02498
3349.59099,2.02500
3348.56130,2.02503
3347.53160,2.02505
3346.50191,2.02505
3345.47222,2.02502
3344.44253,2.02499
3343.41283,2.02495
3342.38314,2.02490
3341.35345,2.02481
3340.32375,2.02466
3339.29406,2.02444
3338.26437,2.02416
3337.23467,2.02384
3336.20498,2.02349
3335.17529,2.02316
3334.14560,2.02289
3333.11590,2.02269
3332.08621,2.02259
3331.05652,2.02257
3330.02682,2.02259
3328.99713,2.02262
3327.96744,2.02265
3326.93775,2.02268
3325.90805,2.02270
3324.87836,2.02272
3323.84867,2.02274
3322.81897,2.02276
3321.78928,2.02278
3320.75959,2.02280
3319.72990,2.02284
3318.70020,2.02288
3317.67051,2.02290
3316.64082,2.02291
3315.61112,2.02289
3314.58143,2.02288
3313.55174,2.02289
3312.52205,2.02297
3311.49235,2.02313
3310.46266,2.02339
3309.43297,2.02371
3308.40327,2.02404
3307.37358,2.02437
3306.34389,2.02467
3305.31420,2.02489
3304.28450,2.02504
3303.25481,2.02516
3302.22512,2.02525
3301.19542,2.02533
3300.16573,2.02542
3299.13604,2.02551
3298.10634,2.02560
3297.07665,2.02568
3296.04696,2.02576
3295.01727,2.02584
3293.98757,2.02590
3292.95788,2.02595
3291.92819,2.02602
3290.89849,2.02611
3289.86880,2.02626
3288.83911,2.02647
3287.80942,2.02672
3286.77972,2.02700
3285.75003,2.02726
3284.72034,2.02747
3283.69064,2.02760
3282.66095,2.02765
3281.63126,2.02760
3280.60157,2.02747
3279.57187,2.02730
3278.54218,2.02708
3277.51249,2.02683
3276.48279,2.02656
3275.45310,2.02629
3274.42341,2.02600
3273.39372,2.02571
3272.36402,2.02544
3271.33433,2.02518
3270.30464,2.02495
3269.27494,2.02475
3268.24525,2.02460
3267.21556,2.02454
3266.18586,2.02456
3265.15617,2.02464
3264.12648,2.02477
3263.09679,2.02494
3262.06709,2.02513
3261.03740,2.02533
3260.00771,2.02552
3258.97801,2.02566
3257.94832,2.02573
3256.91863,2.02575
3255.88894,2.02572
3254.85924,2.02565
3253.82955,2.02554
3252.79986,2.02539
3251.77016,2.02524
3250.74047,2.02511
3249.71078,2.02501
3248.68109,2.02494
3247.65139,2.02488
3246.62170,2.02483
3245.59201,2.02478
3244.56231,2.02476
3243.53262,2.02477
3242.50293,2.02478
3241.47324,2.02478
3240.44354,2.02478
3239.41385,2.02480
3238.38416,2.02487
3237.35446,2.02498
3236.32477,2.02510
3235.29508,2.02520
3234.26539,2.02528
3233.23569,2.02535
3232.20600,2.02542
3231.17631,2.02550
3230.14661,2.02559
3229.11692,2.02568
3228.08723,2.02578
3227.05753,2.02593
3226.02784,2.02613
3224.99815,2.02636
3223.96846,2.02658
3222.93876,2.02676
3221.90907,2.02689
3220.87938,2.02696
3219.84968,2.02696
3218.81999,2.02686
3217.79030,2.02665
3216.76061,2.02639
3215.73091,2.02613
3214.70122,2.02592
3213.67153,2.02575
3212.64183,2.02560
3211.61214,2.02545
3210.58245,2.02532
3209.55276,2.02521
3208.52306,2.02513
3207.49337,2.02510
3206.46368,2.02513
3205.43398,2.02522
3204.40429,2.02536
3203.37460,2.02559
3202.34491,2.02590
3201.31521,2.02628
3200.28552,2.02668
3199.25583,2.02707
3198.22613,2.02740
3197.19644,2.02766
3196.16675,2.02784
3195.13706,2.02793
3194.10736,2.02793
3193.07767,2.02788
3192.04798,2.02783
3191.01828,2.02781
3189.98859,2.02781
3188.95890,2.02781
3187.92920,2.02779
3186.89951,2.02776
3185.86982,2.02776
3184.84013,2.02783
3183.81043,2.02797
3182.78074,2.02818
3181.75105,2.02845
3180.72135,2.02875
3179.69166,2.02910
3178.66197,2.02949
3177.63228,2.02989
3176.60258,2.03030
3175.57289,2.03066
3174.54320,2.03094
3173.51350,2.03112
3172.48381,2.03120
3171.45412,2.03119
3170.42443,2.03108
3169.39473,2.03089
3168.36504,2.03065
3167.33535,2.03039
3166.30565,2.03011
3165.27596,2.02980
3164.24627,2.02947
3163.21658,2.02913
3162.18688,2.02885
3161.15719,2.02865
3160.12750,2.02852
3159.09780,2.02845
3158.06811,2.02840
3157.03842,2.02839
3156.00873,2.02844
3154.97903,2.02856
3153.94934,2.02873
3152.91965,2.02892
3151.88995,2.02914
3150.86026,2.02934
3149.83057,2.02948
3148.80087,2.02957
3147.77118,2.02963
3146.74149,2.02966
3145.71180,2.02965
3144.68210,2.02961
3143.65241,2.02955
3142.62272,2.02948
3141.59302,2.02941
3140.56333,2.02934
3139.53364,2.02928
3138.50395,2.02926
3137.47425,2.02929
3136.44456,2.02936
3135.41487,2.02946
3134.38517,2.02960
3133.35548,2.02978
3132.32579,2.03000
3131.29610,2.03025
3130.26640,2.03051
3129.23671,2.03075
3128.20702,2.03100
3127.17732,2.03122
3126.14763,2.03137
3125.11794,2.03148
3124.08825,2.03157
3123.05855,2.03165
3122.02886,2.03171
3120.99917,2.03175
3119.96947,2.03180
3118.93978,2.03186
3117.91009,2.03195
3116.88040,2.03207
3115.85070,2.03223
3114.82101,2.03241
3113.79132,2.03261
3112.76162,2.03283
3111.73193,2.03305
3110.70224,2.03327
3109.67254,2.03347
3108.64285,2.03364
3107.61316,2.03375
3106.58347,2.03382
3105.55377,2.03385
3104.52408,2.03384
3103.49439,2.03378
3102.46469,2.03368
3101.43500,2.03353
3100.40531,2.03336
3099.37562,2.03320
3098.34592,2.03305
3097.31623,2.03292
3096.28654,2.03284
3095.25684,2.03283
3094.22715,2.03288
3093.19746,2.03300
3092.16777,2.03316
3091.13807,2.03336
3090.10838,2.03358
3089.07869,2.03383
3088.04899,2.03410
3087.01930,2.03437
3085.98961,2.03466
3084.95992,2.03496
3083.93022,2.03526
3082.90053,2.03555
3081.87084,2.03583
3080.84114,2.03607
3079.81145,2.03628
3078.78176,2.03645
3077.75207,2.03661
3076.72237,2.03677
3075.69268,2.03695
3074.66299,2.03714
3073.63329,2.03731
3072.60360,2.03744
3071.57391,2.03753
3070.54421,2.03760
3069.51452,2.03764
3068.48483,2.03763
3067.45514,2.03758
3066.42544,2.03751
3065.39575,2.03747
3064.36606,2.03745
3063.33636,2.03745
3062.30667,2.03750
3061.27698,2.03760
3060.24729,2.03775
3059.21759,2.03795
3058.18790,2.03820
3057.15821,2.03847
3056.12851,2.03877
3055.09882,2.03911
3054.06913,2.03951
3053.03944,2.03998
3052.00974,2.04050
3050.98005,2.04102
3049.95036,2.04148
3048.92066,2.04187
3047.89097,2.04220
3046.86128,2.04249
3045.83159,2.04275
3044.80189,2.04296
3043.77220,2.04313
3042.74251,2.04327
3041.71281,2.04340
3040.68312,2.04357
3039.65343,2.04375
3038.62374,2.04395
3037.59404,2.04417
3036.56435,2.04444
3035.53466,2.04476
3034.50496,2.04513
3033.47527,2.04553
3032.44558,2.04596
3031.41588,2.04642
3030.38619,2.04692
3029.35650,2.04744
3028.32681,2.04797
3027.29711,2.04848
3026.26742,2.04899
3025.23773,2.04949
3024.20803,2.04999
3023.17834,2.05050
3022.14865,2.05100
3021.11896,2.05145
3020.08926,2.05185
3019.05957,2.05222
3018.02988,2.05258
3017.00018,2.05294
3015.97049,2.05331
3014.94080,2.05368
3013.91111,2.05407
3012.88141,2.05452
3011.85172,2.05503
3010.82203,2.05562
3009.79233,2.05629
3008.76264,2.05704
3007.73295,2.05783
3006.70326,2.05864
3005.67356,2.05946
3004.64387,2.06031
3003.61418,2.06120
3002.58448,2.06214
3001.55479,2.06313
3000.52510,2.06412
2999.49541,2.06511
2998.46571,2.06607
2997.43602,2.06696
2996.40633,2.06779
2995.37663,2.06856
2994.34694,2.06929
2993.31725,2.06994
2992.28755,2.07049
2991.25786,2.07095
2990.22817,2.07133
2989.19848,2.07166
2988.16878,2.07193
2987.13909,2.07215
2986.10940,2.07233
2985.07970,2.07246
2984.05001,2.07252
2983.02032,2.07245
2981.99063,2.07226
2980.96093,2.07196
2979.93124,2.07157
2978.90155,2.07112
2977.87185,2.07056
2976.84216,2.06989
2975.81247,2.06911
2974.78278,2.06825
2973.75308,2.06732
2972.72339,2.06632
2971.69370,2.06524
2970.66400,2.06408
2969.63431,2.06285
2968.60462,2.06155
2967.57493,2.06018
2966.54523,2.05878
2965.51554,2.05735
2964.48585,2.05591
2963.45615,2.05448
2962.42646,2.05308
2961.39677,2.05171
2960.36707,2.05036
2959.33738,2.04900
2958.30769,2.04762
2957.27800,2.04623
2956.24830,2.04483
2955.21861,2.04345
2954.18892,2.04208
2953.15922,2.04073
2952.12953,2.03941
2951.09984,2.03816
2950.07015,2.03699
2949.04045,2.03587
2948.01076,2.03479
2946.98107,2.03376
2945.95137,2.03279
2944.92168,2.03184
2943.89199,2.03089
2942.86230,2.02994
2941.83260,2.02897
2940.80291,2.02798
2939.77322,2.02699
2938.74352,2.02595
2937.71383,2.02486
2936.68414,2.02370
2935.65445,2.02244
2934.62475,2.02108
2933.59506,2.01960
2932.56537,2.01801
2931.53567,2.01632
2930.50598,2.01455
2929.47629,2.01271
2928.44660,2.01082
2927.41690,2.00894
2926.38721,2.00708
2925.35752,2.00527
2924.32782,2.00351
2923.29813,2.00186
2922.26844,2.00032
2921.23874,1.99892
2920.20905,1.99764
2919.17936,1.99652
2918.14967,1.99560
2917.11997,1.99491
2916.09028,1.99444
2915.06059,1.99418
2914.03089,1.99408
2913.00120,1.99413
2911.97151,1.99433
2910.94182,1.99467
2909.91212,1.99510
2908.88243,1.99559
2907.85274,1.99613
2906.82304,1.99667
2905.79335,1.99722
2904.76366,1.99779
2903.73397,1.99837
2902.70427,1.99895
2901.67458,1.99949
2900.64489,1.99999
2899.61519,2.00045
2898.58550,2.00087
2897.55581,2.00126
2896.52612,2.00162
2895.49642,2.00196
2894.46673,2.00232
2893.43704,2.00269
2892.40734,2.00310
2891.37765,2.00351
2890.34796,2.00392
2889.31827,2.00432
2888.28857,2.00475
2887.25888,2.00520
2886.22919,2.00565
2885.19949,2.00607
2884.16980,2.00645
2883.14011,2.00681
2882.11041,2.00715
2881.08072,2.00747
2880.05103,2.00773
2879.02134,2.00789
2877.99164,2.00792
2876.96195,2.00781
2875.93226,2.00756
2874.90256,2.00719
2873.87287,2.00670
2872.84318,2.00610
2871.81349,2.00541
2870.78379,2.00464
2869.75410,2.00381
2868.72441,2.00295
2867.69471,2.00207
2866.66502,2.00116
2865.63533,2.00024
2864.60564,1.99935
2863.57594,1.99849
2862.54625,1.99765
2861.51656,1.99681
2860.48686,1.99601
2859.45717,1.99526
2858.42748,1.99458
2857.39779,1.99392
2856.36809,1.99327
2855.33840,1.99262
2854.30871,1.99198
2853.27901,1.99138
2852.24932,1.99083
2851.21963,1.99035
2850.18994,1.98995
2849.16024,1.98965
2848.13055,1.98943
2847.10086,1.98929
2846.07116,1.98924
2845.04147,1.98926
2844.01178,1.98936
2842.98208,1.98951
2841.95239,1.98973
2840.92270,1.99002
2839.89301,1.99038
2838.86331,1.99078
2837.83362,1.99118
2836.80393,1.99161
2835.77423,1.99205
2834.74454,1.99252
2833.71485,1.99296
2832.68516,1.99336
2831.65546,1.99373
2830.62577,1.99411
2829.59608,1.99449
2828.56638,1.99487
2827.53669,1.99524
2826.50700,1.99559
2825.47731,1.99590
2824.44761,1.99616
2823.41792,1.99634
2822.38823,1.99643
2821.35853,1.99644
2820.32884,1.99639
2819.29915,1.99631
2818.26946,1.99622
2817.23976,1.99615
2816.21007,1.99609
2815.18038,1.99603
2814.15068,1.99598
2813.12099,1.99596
2812.09130,1.99596
2811.06161,1.99602
2810.03191,1.99611
2809.00222,1.99622
2807.97253,1.99638
2806.94283,1.99661
2805.91314,1.99692
2804.88345,1.99729
2803.85375,1.99769
2802.82406,1.99809
2801.79437,1.99846
2800.76468,1.99879
2799.73498,1.99904
2798.70529,1.99922
2797.67560,1.99935
2796.64590,1.99944
2795.61621,1.99950
2794.58652,1.99956
2793.55683,1.99962
2792.52713,1.99966
2791.49744,1.99966
2790.46775,1.99963
2789.43805,1.99959
2788.40836,1.99951
2787.37867,1.99941
2786.34898,1.99932
2785.31928,1.99925
2784.28959,1.99920
2783.25990,1.99919
2782.23020,1.99923
2781.20051,1.99931
2780.17082,1.99941
2779.14113,1.99949
2778.11143,1.99956
2777.08174,1.99963
2776.05205,1.99970
2775.02235,1.99978
2773.99266,1.99989
2772.96297,2.00005
2771.93328,2.00025
2770.90358,2.00049
2769.87389,2.00076
2768.84420,2.00105
2767.81450,2.00135
2766.78481,2.00166
2765.75512,2.00197
2764.72542,2.00225
2763.69573,2.00251
2762.66604,2.00277
2761.63635,2.00304
2760.60665,2.00329
2759.57696,2.00350
2758.54727,2.00367
2757.51757,2.00379
2756.48788,2.00384
2755.45819,2.00382
2754.42850,2.00375
2753.39880,2.00365
2752.36911,2.00353
2751.33942,2.00340
2750.30972,2.00325
2749.28003,2.00310
2748.25034,2.00295
2747.22065,2.00282
2746.19095,2.00271
2745.16126,2.00261
2744.13157,2.00253
2743.10187,2.00248
2742.07218,2.00244
2741.04249,2.00240
2740.01280,2.00236
2738.98310,2.00235
2737.95341,2.00237
2736.92372,2.00239
2735.89402,2.00242
2734.86433,2.00244
2733.83464,2.00246
2732.80495,2.00248
2731.77525,2.00249
2730.74556,2.00250
2729.71587,2.00253
2728.68617,2.00258
2727.65648,2.00264
2726.62679,2.00272
2725.59709,2.00282
2724.56740,2.00295
2723.53771,2.00313
2722.50802,2.00332
2721.47832,2.00354
2720.44863,2.00377
2719.41894,2.00400
2718.38924,2.00422
2717.35955,2.00441
2716.32986,2.00457
2715.30017,2.00469
2714.27047,2.00478
2713.24078,2.00483
2712.21109,2.00485
2711.18139,2.00483
2710.15170,2.00477
2709.12201,2.00468
2708.09232,2.00454
2707.06262,2.00436
2706.03293,2.00416
2705.00324,2.00395
2703.97354,2.00375
2702.94385,2.00358
2701.91416,2.00343
2700.88447,2.00334
2699.85477,2.00330
2698.82508,2.00330
2697.79539,2.00335
2696.76569,2.00346
2695.73600,2.00360
2694.70631,2.00378
2693.67662,2.00397
2692.64692,2.00418
2691.61723,2.00438
2690.58754,2.00459
2689.55784,2.00480
2688.52815,2.00501
2687.49846,2.00520
2686.46876,2.00538
2685.43907,2.00553
2684.40938,2.00564
2683.37969,2.00572
2682.34999,2.00575
2681.32030,2.00577
2680.29061,2.00579
2679.26091,2.00580
2678.23122,2.00581
2677.20153,2.00583
2676.17184,2.00584
2675.14214,2.00585
2674.11245,2.00585
2673.08276,2.00586
2672.05306,2.00587
2671.02337,2.00590
2669.99368,2.00594
2668.96399,2.00599
2667.93429,2.00606
2666.90460,2.00614
2665.87491,2.00623
2664.84521,2.00632
2663.81552,2.00641
2662.78583,2.00648
2661.75614,2.00656
2660.72644,2.00664
2659.69675,2.00672
2658.66706,2.00681
2657.63736,2.00692
2656.60767,2.00703
2655.57798,2.00715
2654.54828,2.00727
2653.51859,2.00737
2652.48890,2.00745
2651.45921,2.00750
2650.42951,2.00752
2649.39982,2.00751
2648.37013,2.00749
2647.34043,2.00749
2646.31074,2.00751
2645.28105,2.00756
2644.25136,2.00764
2643.22166,2.00775
2642.19197,2.00787
2641.16228,2.00801
2640.13258,2.00818
2639.10289,2.00835
2638.07320,2.00854
2637.04351,2.00875
2636.01381,2.00898
2634.98412,2.00921
2633.95443,2.00946
2632.92473,2.00970
2631.89504,2.00995
2630.86535,2.01018
2629.83566,2.01037
2628.80596,2.01053
2627.77627,2.01066
2626.74658,2.01076
2625.71688,2.01087
2624.68719,2.01099
2623.65750,2.01115
2622.62781,2.01137
2621.59811,2.01164
2620.56842,2.01196
2619.53873,2.01233
2618.50903,2.01272
2617.47934,2.01315
2616.44965,2.01361
2615.41995,2.01409
2614.39026,2.01458
2613.36057,2.01508
2612.33088,2.01558
2611.30118,2.01609
2610.27149,2.01659
2609.24180,2.01709
2608.21210,2.01755
2607.18241,2.01795
2606.15272,2.01826
2605.12303,2.01849
2604.09333,2.01869
2603.06364,2.01887
2602.03395,2.01902
2601.00425,2.01914
2599.97456,2.01924
2598.94487,2.01932
2597.91518,2.01936
2596.88548,2.01936
2595.85579,2.01930
2594.82610,2.01921
2593.79640,2.01909
2592.76671,2.01896
2591.73702,2.01882
2590.70733,2.01868
2589.67763,2.01855
2588.64794,2.01845
2587.61825,2.01840
2586.58855,2.01840
2585.55886,2.01843
2584.52917,2.01846
2583.49948,2.01846
2582.46978,2.01842
2581.44009,2.01838
2580.41040,2.01837
2579.38070,2.01839
2578.35101,2.01842
2577.32132,2.01844
2576.29162,2.01844
2575.26193,2.01844
2574.23224,2.01843
2573.20255,2.01841
2572.17285,2.01836
2571.14316,2.01830
2570.11347,2.01825
2569.08377,2.01823
2568.05408,2.01821
2567.02439,2.01820
2565.99470,2.01822
2564.96500,2.01832
2563.93531,2.01851
2562.90562,2.01877
2561.87592,2.01904
2560.84623,2.01929
2559.81654,2.01950
2558.78685,2.01969
2557.75715,2.01986
2556.72746,2.02004
2555.69777,2.02021
2554.66807,2.02036
2553.63838,2.02048
2552.60869,2.02057
2551.57900,2.02065
2550.54930,2.02073
2549.51961,2.02079
2548.48992,2.02085
2547.46022,2.02092
2546.43053,2.02102
2545.40084,2.02115
2544.37115,2.02131
2543.34145,2.02149
2542.31176,2.02173
2541.28207,2.02205
2540.25237,2.02245
2539.22268,2.02290
2538.19299,2.02334
2537.16329,2.02377
2536.13360,2.02421
2535.10391,2.02466
2534.07422,2.02513
2533.04452,2.02559
2532.01483,2.02605
2530.98514,2.02649
2529.95544,2.02692
2528.92575,2.02732
2527.89606,2.02771
2526.86637,2.02806
2525.83667,2.02839
2524.80698,2.02869
2523.77729,2.02898
2522.74759,2.02927
2521.71790,2.02955
2520.68821,2.02982
2519.65852,2.03007
2518.62882,2.03031
2517.59913,2.03053
2516.56944,2.03071
2515.53974,2.03087
2514.51005,2.03100
2513.48036,2.03112
2512.45067,2.03121
2511.42097,2.03128
2510.39128,2.03131
2509.36159,2.03130
2508.33189,2.03124
2507.30220,2.03113
2506.27251,2.03096
2505.24282,2.03072
2504.21312,2.03040
2503.18343,2.02998
2502.15374,2.02947
2501.12404,2.02889
2500.09435,2.02823
2499.06466,2.02752
2498.03496,2.02677
2497.00527,2.02597
2495.97558,2.02511
2494.94589,2.02420
2493.91619,2.02325
2492.88650,2.02227
2491.85681,2.02132
2490.82711,2.02043
2489.79742,2.01957
2488.76773,2.01875
2487.73804,2.01796
2486.70834,2.01719
2485.67865,2.01646
2484.64896,2.01577
2483.61926,2.01510
2482.58957,2.01443
2481.55988,2.01376
2480.53019,2.01306
2479.50049,2.01234
2478.47080,2.01161
2477.44111,2.01088
2476.41141,2.01014
2475.38172,2.00939
2474.35203,2.00865
2473.32234,2.00789
2472.29264,2.00712
2471.26295,2.00634
2470.23326,2.00557
2469.20356,2.00484
2468.17387,2.00417
2467.14418,2.00356
2466.11449,2.00301
2465.08479,2.00252
2464.05510,2.00209
2463.02541,2.00172
2461.99571,2.00143
2460.96602,2.00120
2459.93633,2.00104
2458.90663,2.00093
2457.87694,2.00087
2456.84725,2.00086
2455.81756,2.00089
2454.78786,2.00095
2453.75817,2.00102
2452.72848,2.00109
2451.69878,2.00115
2450.66909,2.00119
2449.63940,2.00120
2448.60971,2.00115
2447.58001,2.00104
2446.55032,2.00086
2445.52063,2.00061
2444.49093,2.00030
2443.46124,1.99994
2442.43155,1.99955
2441.40186,1.99915
2440.37216,1.99875
2439.34247,1.99835
2438.31278,1.99796
2437.28308,1.99759
2436.25339,1.99726
2435.22370,1.99696
2434.19401,1.99668
2433.16431,1.99641
2432.13462,1.99616
2431.10493,1.99593
2430.07523,1.99572
2429.04554,1.99553
2428.01585,1.99538
2426.98616,1.99529
2425.95646,1.99522
2424.92677,1.99516
2423.89708,1.99509
2422.86738,1.99500
2421.83769,1.99490
2420.80800,1.99480
2419.77830,1.99472
2418.74861,1.99467
2417.71892,1.99465
2416.68923,1.99464
2415.65953,1.99463
2414.62984,1.99462
2413.60015,1.99462
2412.57045,1.99461
2411.54076,1.99457
2410.51107,1.99446
2409.48138,1.99429
2408.45168,1.99408
2407.42199,1.99385
2406.39230,1.99360
2405.36260,1.99335
2404.33291,1.99310
2403.30322,1.99285
2402.27353,1.99259
2401.24383,1.99228
2400.21414,1.99193
2399.18445,1.99156
2398.15475,1.99116
2397.12506,1.99075
2396.09537,1.99036
2395.06568,1.99001
2394.03598,1.98973
2393.00629,1.98952
2391.97660,1.98940
2390.94690,1.98938
2389.91721,1.98946
2388.88752,1.98963
2387.85782,1.98988
2386.82813,1.99023
2385.79844,1.99070
2384.76875,1.99133
2383.73905,1.99212
2382.70936,1.99307
2381.67967,1.99415
2380.64997,1.99529
2379.62028,1.99645
2378.59059,1.99759
2377.56090,1.99872
2376.53120,1.99982
2375.50151,2.00088
2374.47182,2.00189
2373.44212,2.00284
2372.41243,2.00374
2371.38274,2.00459
2370.35305,2.00536
2369.32335,2.00603
2368.29366,2.00652
2367.26397,2.00680
2366.23427,2.00684
2365.20458,2.00664
2364.17489,2.00626
2363.14520,2.00572
2362.11550,2.00507
2361.08581,2.00436
2360.05612,2.00362
2359.02642,2.00286
2357.99673,2.00205
2356.96704,2.00117
2355.93735,2.00025
2354.90765,1.99932
2353.87796,1.99849
2352.84827,1.99786
2351.81857,1.99747
2350.78888,1.99731
2349.75919,1.99742
2348.72949,1.99779
2347.69980,1.99839
2346.67011,1.99913
2345.64042,1.99991
2344.61072,2.00065
2343.58103,2.00131
2342.55134,2.00185
2341.52164,2.00229
2340.49195,2.00264
2339.46226,2.00289
2338.43257,2.00303
2337.40287,2.00304
2336.37318,2.00291
2335.34349,2.00262
2334.31379,2.00217
2333.28410,2.00152
2332.25441,2.00073
2331.22472,1.99983
2330.19502,1.99890
2329.16533,1.99799
2328.13564,1.99715
2327.10594,1.99641
2326.07625,1.99576
2325.04656,1.99520
2324.01687,1.99472
2322.98717,1.99427
2321.95748,1.99382
2320.92779,1.99337
2319.89809,1.99295
2318.86840,1.99256
2317.83871,1.99222
2316.80902,1.99192
2315.77932,1.99165
2314.74963,1.99140
2313.71994,1.99117
2312.69024,1.99095
2311.66055,1.99074
2310.63086,1.99052
2309.60116,1.99030
2308.57147,1.99005
2307.54178,1.98977
2306.51209,1.98947
2305.48239,1.98915
2304.45270,1.98885
2303.42301,1.98859
2302.39331,1.98836
2301.36362,1.98816
2300.33393,1.98799
2299.30424,1.98785
2298.27454,1.98775
2297.24485,1.98771
2296.21516,1.98772
2295.18546,1.98778
2294.15577,1.98788
2293.12608,1.98799
2292.09639,1.98811
2291.06669,1.98826
2290.03700,1.98843
2289.00731,1.98861
2287.97761,1.98879
2286.94792,1.98894
2285.91823,1.98908
2284.88854,1.98919
2283.85884,1.98926
2282.82915,1.98931
2281.79946,1.98935
2280.76976,1.98939
2279.74007,1.98945
2278.71038,1.98952
2277.68069,1.98961
2276.65099,1.98972
2275.62130,1.98987
2274.59161,1.99006
2273.56191,1.99029
2272.53222,1.99054
2271.50253,1.99077
2270.47283,1.99097
2269.44314,1.99112
2268.41345,1.99124
2267.38376,1.99135
2266.35406,1.99144
2265.32437,1.99148
2264.29468,1.99147
2263.26498,1.99140
2262.23529,1.99131
2261.20560,1.99122
2260.17591,1.99115
2259.14621,1.99111
2258.11652,1.99108
2257.08683,1.99107
2256.05713,1.99107
2255.02744,1.99110
2253.99775,1.99115
2252.96806,1.99125
2251.93836,1.99140
2250.90867,1.99158
2249.87898,1.99177
2248.84928,1.99196
2247.81959,1.99213
2246.78990,1.99226
2245.76021,1.99236
2244.73051,1.99246
2243.70082,1.99255
2242.67113,1.99263
2241.64143,1.99267
2240.61174,1.99269
2239.58205,1.99270
2238.55236,1.99273
2237.52266,1.99281
2236.49297,1.99293
2235.46328,1.99307
2234.43358,1.99321
2233.40389,1.99334
2232.37420,1.99345
2231.34450,1.99354
2230.31481,1.99363
2229.28512,1.99374
2228.25543,1.99386
2227.22573,1.99397
2226.19604,1.99404
2225.16635,1.99408
2224.13665,1.99409
2223.10696,1.99409
2222.07727,1.99406
2221.04758,1.99401
2220.01788,1.99394
2218.98819,1.99386
2217.95850,1.99378
2216.92880,1.99371
2215.89911,1.99366
2214.86942,1.99365
2213.83973,1.99367
2212.81003,1.99370
2211.78034,1.99374
2210.75065,1.99378
2209.72095,1.99383
2208.69126,1.99388
2207.66157,1.99395
2206.63188,1.99407
2205.60218,1.99423
2204.57249,1.99444
2203.54280,1.99465
2202.51310,1.99487
2201.48341,1.99508
2200.45372,1.99530
2199.42403,1.99551
2198.39433,1.99572
2197.36464,1.99591
2196.33495,1.99606
2195.30525,1.99618
2194.27556,1.99628
2193.24587,1.99635
2192.21617,1.99639
2191.18648,1.99639
2190.15679,1.99634
2189.12710,1.99624
2188.09740,1.99609
2187.06771,1.99590
2186.03802,1.99568
2185.00832,1.99546
2183.97863,1.99525
2182.94894,1.99506
2181.91925,1.99490
2180.88955,1.99477
2179.85986,1.99466
2178.83017,1.99458
2177.80047,1.99452
2176.77078,1.99450
2175.74109,1.99452
2174.71140,1.99457
2173.68170,1.99465
2172.65201,1.99477
2171.62232,1.99492
2170.59262,1.99510
2169.56293,1.99531
2168.53324,1.99556
2167.50355,1.99583
2166.47385,1.99609
2165.44416,1.99635
2164.41447,1.99660
2163.38477,1.99688
2162.35508,1.99718
2161.32539,1.99750
2160.29570,1.99784
2159.26600,1.99820
2158.23631,1.99857
2157.20662,1.99894
2156.17692,1.99929
2155.14723,1.99961
2154.11754,1.99991
2153.08784,2.00020
2152.05815,2.00046
2151.02846,2.00072
2149.99877,2.00099
2148.96907,2.00127
2147.93938,2.00154
2146.90969,2.00181
2145.87999,2.00207
2144.85030,2.00229
2143.82061,2.00246
2142.79092,2.00259
2141.76122,2.00269
2140.73153,2.00277
2139.70184,2.00286
2138.67214,2.00296
2137.64245,2.00306
2136.61276,2.00313
2135.58307,2.00317
2134.55337,2.00319
2133.52368,2.00318
2132.49399,2.00312
2131.46429,2.00303
2130.43460,2.00290
2129.40491,2.00274
2128.37522,2.00259
2127.34552,2.00245
2126.31583,2.00231
2125.28614,2.00217
2124.25644,2.00199
2123.22675,2.00178
2122.19706,2.00153
2121.16737,2.00121
2120.13767,2.00084
2119.10798,2.00044
2118.07829,2.00004
2117.04859,1.99963
2116.01890,1.99924
2114.98921,1.99887
2113.95951,1.99850
2112.92982,1.99814
2111.90013,1.99779
2110.87044,1.99747
2109.84074,1.99721
2108.81105,1.99699
2107.78136,1.99683
2106.75166,1.99673
2105.72197,1.99672
2104.69228,1.99679
2103.66259,1.99695
2102.63289,1.99718
2101.60320,1.99744
2100.57351,1.99772
2099.54381,1.99801
2098.51412,1.99831
2097.48443,1.99858
2096.45474,1.99883
2095.42504,1.99903
2094.39535,1.99919
2093.36566,1.99930
2092.33596,1.99935
2091.30627,1.99933
2090.27658,1.99921
2089.24689,1.99901
2088.21719,1.99875
2087.18750,1.99845
2086.15781,1.99813
2085.12811,1.99781
2084.09842,1.99748
2083.06873,1.99716
2082.03903,1.99688
2081.00934,1.99663
2079.97965,1.99642
2078.94996,1.99626
2077.92026,1.99614
2076.89057,1.99606
2075.86088,1.99601
2074.83118,1.99599
2073.80149,1.99600
2072.77180,1.99603
2071.74211,1.99608
2070.71241,1.99614
2069.68272,1.99623
2068.65303,1.99634
2067.62333,1.99645
2066.59364,1.99654
2065.56395,1.99663
2064.53426,1.99674
2063.50456,1.99688
2062.47487,1.99708
2061.44518,1.99730
2060.41548,1.99755
2059.38579,1.99779
2058.35610,1.99803
2057.32641,1.99826
2056.29671,1.99848
2055.26702,1.99868
2054.23733,1.99885
2053.20763,1.99898
2052.17794,1.99908
2051.14825,1.99915
2050.11856,1.99921
2049.08886,1.99928
2048.05917,1.99936
2047.02948,1.99946
2045.99978,1.99957
2044.97009,1.99970
2043.94040,1.99986
2042.91070,2.00004
2041.88101,2.00024
2040.85132,2.00046
2039.82163,2.00073
2038.79193,2.00104
2037.76224,2.00139
2036.73255,2.00175
2035.70285,2.00208
2034.67316,2.00238
2033.64347,2.00266
2032.61378,2.00293
2031.58408,2.00317
2030.55439,2.00336
2029.52470,2.00350
2028.49500,2.00360
2027.46531,2.00368
2026.43562,2.00376
2025.40593,2.00382
2024.37623,2.00387
2023.34654,2.00392
2022.31685,2.00396
2021.28715,2.00400
2020.25746,2.00404
2019.22777,2.00407
2018.19808,2.00409
2017.16838,2.00408
2016.13869,2.00405
2015.10900,2.00404
2014.07930,2.00406
2013.04961,2.00409
2012.01992,2.00411
2010.99023,2.00413
2009.96053,2.00417
2008.93084,2.00422
2007.90115,2.00429
2006.87145,2.00436
2005.84176,2.00441
2004.81207,2.00447
2003.78237,2.00455
2002.75268,2.00462
2001.72299,2.00469
2000.69330,2.00474
1999.66360,2.00479
1998.63391,2.00483
1997.60422,2.00485
1996.57452,2.00486
1995.54483,2.00485
1994.51514,2.00483
1993.48545,2.00480
1992.45575,2.00476
1991.42606,2.00471
1990.39637,2.00469
1989.36667,2.00471
1988.33698,2.00476
1987.30729,2.00484
1986.27760,2.00496
1985.24790,2.00509
1984.21821,2.00525
1983.18852,2.00544
1982.15882,2.00564
1981.12913,2.00584
1980.09944,2.00606
1979.06975,2.00628
1978.04005,2.00649
1977.01036,2.00670
1975.98067,2.00691
1974.95097,2.00710
1973.92128,2.00726
1972.89159,2.00739
1971.86190,2.00751
1970.83220,2.00764
1969.80251,2.00776
1968.77282,2.00789
1967.74312,2.00800
1966.71343,2.00811
1965.68374,2.00828
1964.65404,2.00851
1963.62435,2.00879
1962.59466,2.00907
1961.56497,2.00937
1960.53527,2.00968
1959.50558,2.01000
1958.47589,2.01033
1957.44619,2.01065
1956.41650,2.01095
1955.38681,2.01124
1954.35712,2.01150
1953.32742,2.01172
1952.29773,2.01189
1951.26804,2.01201
1950.23834,2.01206
1949.20865,2.01205
1948.17896,2.01201
1947.14927,2.01193
1946.11957,2.01182
1945.08988,2.01172
1944.06019,2.01166
1943.03049,2.01162
1942.00080,2.01157
1940.97111,2.01159
1939.94142,2.01170
1938.91172,2.01186
1937.88203,2.01206
1936.85234,2.01231
1935.82264,2.01262
1934.79295,2.01298
1933.76326,2.01334
1932.73357,2.01372
1931.70387,2.01412
1930.67418,2.01451
1929.64449,2.01487
1928.61479,2.01521
1927.58510,2.01553
1926.55541,2.01581
1925.52571,2.01605
1924.49602,2.01626
1923.46633,2.01642
1922.43664,2.01652
1921.40694,2.01663
1920.37725,2.01677
1919.34756,2.01689
1918.31786,2.01695
1917.28817,2.01699
1916.25848,2.01709
1915.22879,2.01727
1914.19909,2.01743
1913.16940,2.01755
1912.13971,2.01767
1911.11001,2.01780
1910.08032,2.01793
1909.05063,2.01806
1908.02094,2.01820
1906.99124,2.01835
1905.96155,2.01851
1904.93186,2.01868
1903.90216,2.01883
1902.87247,2.01897
1901.84278,2.01910
1900.81309,2.01921
1899.78339,2.01932
1898.75370,2.01942
1897.72401,2.01954
1896.69431,2.01970
1895.66462,2.01987
1894.63493,2.02004
1893.60524,2.02020
1892.57554,2.02035
1891.54585,2.02054
1890.51616,2.02073
1889.48646,2.02089
1888.45677,2.02108
1887.42708,2.02133
1886.39738,2.02164
1885.36769,2.02196
1884.33800,2.02227
1883.30831,2.02258
1882.27861,2.02288
1881.24892,2.02316
1880.21923,2.02341
1879.18953,2.02361
1878.15984,2.02378
1877.13015,2.02393
1876.10046,2.02408
1875.07076,2.02422
1874.04107,2.02439
1873.01138,2.02458
1871.98168,2.02479
1870.95199,2.02501
1869.92230,2.02522
1868.89261,2.02540
1867.86291,2.02558
1866.83322,2.02590
1865.80353,2.02639
1864.77383,2.02702
1863.74414,2.02775
1862.71445,2.02853
1861.68476,2.02930
1860.65506,2.03005
1859.62537,2.03078
1858.59568,2.03149
1857.56598,2.03216
1856.53629,2.03279
1855.50660,2.03337
1854.47691,2.03385
1853.44721,2.03422
1852.41752,2.03455
1851.38783,2.03490
1850.35813,2.03528
1849.32844,2.03566
1848.29875,2.03604
1847.26905,2.03642
1846.23936,2.03684
1845.20967,2.03730
1844.17998,2.03780
1843.15028,2.03844
1842.12059,2.03930
1841.09090,2.04029
1840.06120,2.04133
1839.03151,2.04238
1838.00182,2.04341
1836.97213,2.04442
1835.94243,2.04543
1834.91274,2.04642
1833.88305,2.04736
1832.85335,2.04827
1831.82366,2.04915
1830.79397,2.04997
1829.76428,2.05072
1828.73458,2.05146
1827.70489,2.05232
1826.67520,2.05327
1825.64550,2.05422
1824.61581,2.05516
1823.58612,2.05614
1822.55643,2.05723
1821.52673,2.05847
1820.49704,2.05983
1819.46735,2.06133
1818.43765,2.06302
1817.40796,2.06486
1816.37827,2.06674
1815.34858,2.06870
1814.31888,2.07076
1813.28919,2.07294
1812.25950,2.07523
1811.22980,2.07759
1810.20011,2.08002
1809.17042,2.08249
1808.14072,2.08500
1807.11103,2.08753
1806.08134,2.09002
1805.05165,2.09244
1804.02195,2.09478
1802.99226,2.09702
1801.96257,2.09907
1800.93287,2.10093
1799.90318,2.10260
1798.87349,2.10414
1797.84380,2.10558
1796.81410,2.10682
1795.78441,2.10781
1794.75472,2.10860
1793.72502,2.10923
1792.69533,2.10966
1791.66564,2.10995
1790.63595,2.11025
1789.60625,2.11062
1788.57656,2.11103
1787.54687,2.11144
1786.51717,2.11182
1785.48748,2.11215
1784.45779,2.11248
1783.42810,2.11286
1782.39840,2.11328
1781.36871,2.11369
1780.33902,2.11407
1779.30932,2.11448
1778.27963,2.11497
1777.24994,2.11552
1776.22024,2.11608
1775.19055,2.11661
1774.16086,2.11714
1773.13117,2.11763
1772.10147,2.11800
1771.07178,2.11836
1770.04209,2.11889
1769.01239,2.11957
1767.98270,2.12032
1766.95301,2.12120
1765.92332,2.12229
1764.89362,2.12349
1763.86393,2.12464
1762.83424,2.12572
1761.80454,2.12674
1760.77485,2.12781
1759.74516,2.12903
1758.71547,2.13024
1757.68577,2.13130
1756.65608,2.13227
1755.62639,2.13326
1754.59669,2.13427
1753.56700,2.13520
1752.53731,2.13598
1751.50762,2.13650
1750.47792,2.13674
1749.44823,2.13675
1748.41854,2.13648
1747.38884,2.13593
1746.35915,2.13518
1745.32946,2.13425
1744.29977,2.13301
1743.27007,2.13138
1742.24038,2.12932
1741.21069,2.12689
1740.18099,2.12410
1739.15130,2.12100
1738.12161,2.11777
1737.09191,2.11453
1736.06222,2.11132
1735.03253,2.10804
1734.00284,2.10455
1732.97314,2.10108
1731.94345,2.09789
1730.91376,2.09492
1729.88406,2.09203
1728.85437,2.08917
1727.82468,2.08643
1726.79499,2.08381
1725.76529,2.08133
1724.73560,2.07884
1723.70591,2.07623
1722.67621,2.07361
1721.64652,2.07106
1720.61683,2.06847
1719.58714,2.06568
1718.55744,2.06269
1717.52775,2.05957
1716.49806,2.05655
1715.46836,2.05367
1714.43867,2.05088
1713.40898,2.04815
1712.37929,2.04546
1711.34959,2.04275
1710.31990,2.04000
1709.29021,2.03722
1708.26051,2.03444
1707.23082,2.03168
1706.20113,2.02891
1705.17144,2.02621
1704.14174,2.02369
1703.11205,2.02140
1702.08236,2.01935
1701.05266,2.01738
1700.02297,2.01530
1698.99328,2.01335
1697.96358,2.01180
1696.93389,2.01059
1695.90420,2.00952
1694.87451,2.00864
1693.84481,2.00813
1692.81512,2.00795
1691.78543,2.00811
1690.75573,2.00849
1689.72604,2.00898
1688.69635,2.00957
1687.66666,2.01022
1686.63696,2.01085
1685.60727,2.01140
1684.57758,2.01180
1683.54788,2.01209
1682.51819,2.01258
1681.48850,2.01327
1680.45881,2.01410
1679.42911,2.01502
1678.39942,2.01599
1677.36973,2.01671
1676.34003,2.01713
1675.31034,2.01739
1674.28065,2.01783
1673.25096,2.01855
1672.22126,2.01934
1671.19157,2.02006
1670.16188,2.02078
1669.13218,2.02157
1668.10249,2.02246
1667.07280,2.02351
1666.04311,2.02466
1665.01341,2.02581
1663.98372,2.02689
1662.95403,2.02785
1661.92433,2.02866
1660.89464,2.02938
1659.86495,2.02994
1658.83525,2.03041
1657.80556,2.03089
1656.77587,2.03127
1655.74618,2.03145
1654.71648,2.03135
1653.68679,2.03082
1652.65710,2.02973
1651.62740,2.02854
1650.59771,2.02752
1649.56802,2.02666
1648.53833,2.02585
1647.50863,2.02487
1646.47894,2.02380
1645.44925,2.02291
1644.41955,2.02238
1643.38986,2.02218
1642.36017,2.02221
1641.33048,2.02224
1640.30078,2.02221
1639.27109,2.02216
1638.24140,2.02213
1637.21170,2.02209
1636.18201,2.02199
1635.15232,2.02176
1634.12263,2.02155
1633.09293,2.02141
1632.06324,2.02124
1631.03355,2.02095
1630.00385,2.02049
1628.97416,2.01987
1627.94447,2.01916
1626.91478,2.01857
1625.88508,2.01802
1624.85539,2.01741
1623.82570,2.01666
1622.79600,2.01582
1621.76631,2.01509
1620.73662,2.01454
1619.70692,2.01409
1618.67723,2.01360
1617.64754,2.01299
1616.61785,2.01221
1615.58815,2.01137
1614.55846,2.01065
1613.52877,2.00999
1612.49907,2.00933
1611.46938,2.00868
1610.43969,2.00809
1609.41000,2.00759
1608.38030,2.00715
1607.35061,2.00672
1606.32092,2.00630
1605.29122,2.00589
1604.26153,2.00549
1603.23184,2.00509
1602.20215,2.00475
1601.17245,2.00443
1600.14276,2.00404
1599.11307,2.00361
1598.08337,2.00327
1597.05368,2.00305
1596.02399,2.00291
1594.99430,2.00282
1593.96460,2.00268
1592.93491,2.00249
1591.90522,2.00232
1590.87552,2.00227
1589.84583,2.00230
1588.81614,2.00231
1587.78645,2.00229
1586.75675,2.00227
1585.72706,2.00228
1584.69737,2.00229
1583.66767,2.00214
1582.63798,2.00170
1581.60829,2.00110
1580.57859,2.00049
1579.54890,1.99993
1578.51921,1.99936
1577.48952,1.99875
1576.45982,1.99809
1575.43013,1.99743
1574.40044,1.99693
1573.37074,1.99660
1572.34105,1.99637
1571.31136,1.99622
1570.28167,1.99606
1569.25197,1.99577
1568.22228,1.99546
1567.19259,1.99522
1566.16289,1.99496
1565.13320,1.99457
1564.10351,1.99394
1563.07382,1.99307
1562.04412,1.99206
1561.01443,1.99086
1559.98474,1.98935
1558.95504,1.98734
1557.92535,1.98500
1556.89566,1.98278
1555.86597,1.98073
1554.83627,1.97872
1553.80658,1.97665
1552.77689,1.97463
1551.74719,1.97269
1550.71750,1.97081
1549.68781,1.96895
1548.65812,1.96712
1547.62842,1.96539
1546.59873,1.96370
1545.56904,1.96186
1544.53934,1.95987
1543.50965,1.95794
1542.47996,1.95604
1541.45026,1.95393
1540.42057,1.95154
1539.39088,1.94892
1538.36119,1.94631
1537.33149,1.94387
1536.30180,1.94146
1535.27211,1.93896
1534.24241,1.93634
1533.21272,1.93374
1532.18303,1.93129
1531.15334,1.92877
1530.12364,1.92611
1529.09395,1.92341
1528.06426,1.92075
1527.03456,1.91808
1526.00487,1.91539
1524.97518,1.91271
1523.94549,1.91012
1522.91579,1.90752
1521.88610,1.90476
1520.85641,1.90178
1519.82671,1.89879
1518.79702,1.89592
1517.76733,1.89303
1516.73764,1.89000
1515.70794,1.88699
1514.67825,1.88410
1513.64856,1.88137
1512.61886,1.87872
1511.58917,1.87600
1510.55948,1.87323
1509.52979,1.87043
1508.50009,1.86761
1507.47040,1.86483
1506.44071,1.86205
1505.41101,1.85947
1504.38132,1.85728
1503.35163,1.85544
1502.32193,1.85388
1501.29224,1.85254
1500.26255,1.85134
1499.23286,1.85027
1498.20316,1.84928
1497.17347,1.84836
1496.14378,1.84754
1495.11408,1.84696
1494.08439,1.84665
1493.05470,1.84653
1492.02501,1.84657
1490.99531,1.84682
1489.96562,1.84722
1488.93593,1.84776
1487.90623,1.84856
1486.87654,1.84971
1485.84685,1.85128
1484.81716,1.85331
1483.78746,1.85582
1482.75777,1.85877
1481.72808,1.86212
1480.69838,1.86588
1479.66869,1.87004
1478.63900,1.87453
1477.60931,1.87927
1476.57961,1.88414
1475.54992,1.88906
1474.52023,1.89402
1473.49053,1.89895
1472.46084,1.90367
1471.43115,1.90818
1470.40145,1.91253
1469.37176,1.91668
1468.34207,1.92047
1467.31238,1.92380
1466.28268,1.92665
1465.25299,1.92898
1464.22330,1.93087
1463.19360,1.93245
1462.16391,1.93375
1461.13422,1.93470
1460.10453,1.93523
1459.07483,1.93534
1458.04514,1.93503
1457.01545,1.93430
1455.98575,1.93337
1454.95606,1.93246
1453.92637,1.93162
1452.89668,1.93080
1451.86698,1.92996
1450.83729,1.92915
1449.80760,1.92841
1448.77790,1.92767
1447.74821,1.92688
1446.71852,1.92617
1445.68883,1.92563
1444.65913,1.92519
1443.62944,1.92475
1442.59975,1.92431
1441.57005,1.92389
1440.54036,1.92353
1439.51067,1.92329
1438.48098,1.92317
1437.45128,1.92310
1436.42159,1.92300
1435.39190,1.92299
1434.36220,1.92321
1433.33251,1.92363
1432.30282,1.92430
1431.27312,1.92527
1430.24343,1.92653
1429.21374,1.92793
1428.18405,1.92948
1427.15435,1.93118
1426.12466,1.93301
1425.09497,1.93493
1424.06527,1.93685
1423.03558,1.93877
1422.00589,1.94079
1420.97620,1.94292
1419.94650,1.94508
1418.91681,1.94717
1417.88712,1.94929
1416.85742,1.95154
1415.82773,1.95390
1414.79804,1.95635
1413.76835,1.95890
1412.73865,1.96153
1411.70896,1.96427
1410.67927,1.96716
1409.64957,1.97020
1408.61988,1.97335
1407.59019,1.97658
1406.56050,1.97988
1405.53080,1.98319
1404.50111,1.98650
1403.47142,1.98981
1402.44172,1.99310
1401.41203,1.99632
1400.38234,1.99942
1399.35265,2.00233
1398.32295,2.00507
1397.29326,2.00772
1396.26357,2.01028
1395.23387,2.01267
1394.20418,2.01487
1393.17449,2.01696
1392.14479,2.01893
1391.11510,2.02071
1390.08541,2.02230
1389.05572,2.02369
1388.02602,2.02485
1386.99633,2.02576
1385.96664,2.02651
1384.93694,2.02715
1383.90725,2.02769
1382.87756,2.02807
1381.84787,2.02830
1380.81817,2.02840
1379.78848,2.02834
1378.75879,2.02815
1377.72909,2.02781
1376.69940,2.02736
1375.66971,2.02676
1374.64002,2.02601
1373.61032,2.02519
1372.58063,2.02437
1371.55094,2.02357
1370.52124,2.02276
1369.49155,2.02193
1368.46186,2.02112
1367.43217,2.02036
1366.40247,2.01967
1365.37278,2.01905
1364.34309,2.01851
1363.31339,2.01804
1362.28370,2.01770
1361.25401,2.01756
1360.22432,2.01762
1359.19462,2.01784
1358.16493,2.01822
1357.13524,2.01873
1356.10554,2.01937
1355.07585,2.02009
1354.04616,2.02090
1353.01646,2.02176
1351.98677,2.02266
1350.95708,2.02357
1349.92739,2.02447
1348.89769,2.02539
1347.86800,2.02633
1346.83831,2.02726
1345.80861,2.02818
1344.77892,2.02906
1343.74923,2.02990
1342.71954,2.03069
1341.68984,2.03145
1340.66015,2.03215
1339.63046,2.03281
1338.60076,2.03347
1337.57107,2.03417
1336.54138,2.03493
1335.51169,2.03572
1334.48199,2.03659
1333.45230,2.03754
1332.42261,2.03856
1331.39291,2.03963
1330.36322,2.04074
1329.33353,2.04190
1328.30384,2.04307
1327.27414,2.04424
1326.24445,2.04542
1325.21476,2.04657
1324.18506,2.04768
1323.15537,2.04874
1322.12568,2.04974
1321.09599,2.05064
1320.06629,2.05140
1319.03660,2.05199
1318.00691,2.05244
1316.97721,2.05277
1315.94752,2.05299
1314.91783,2.05312
1313.88813,2.05317
1312.85844,2.05316
1311.82875,2.05311
1310.79906,2.05308
1309.76936,2.05309
1308.73967,2.05316
1307.70998,2.05329
1306.68028,2.05349
1305.65059,2.05378
1304.62090,2.05416
1303.59121,2.05463
1302.56151,2.05520
1301.53182,2.05586
1300.50213,2.05660
1299.47243,2.05742
1298.44274,2.05829
1297.41305,2.05917
1296.38336,2.06002
1295.35366,2.06082
1294.32397,2.06155
1293.29428,2.06223
1292.26458,2.06282
1291.23489,2.06332
1290.20520,2.06369
1289.17551,2.06393
1288.14581,2.06405
1287.11612,2.06410
1286.08643,2.06409
1285.05673,2.06402
1284.02704,2.06390
1282.99735,2.06371
1281.96766,2.06346
1280.93796,2.06316
1279.90827,2.06283
1278.87858,2.06245
1277.84888,2.06203
1276.81919,2.06158
1275.78950,2.06112
1274.75980,2.06064
1273.73011,2.06012
1272.70042,2.05957
1271.67073,2.05898
1270.64103,2.05837
1269.61134,2.05776
1268.58165,2.05714
1267.55195,2.05651
1266.52226,2.05590
1265.49257,2.05531
1264.46288,2.05479
1263.43318,2.05436
1262.40349,2.05402
1261.37380,2.05377
1260.34410,2.05359
1259.31441,2.05348
1258.28472,2.05341
1257.25503,2.05338
1256.22533,2.05337
1255.19564,2.05335
1254.16595,2.05331
1253.13625,2.05325
1252.10656,2.05316
1251.07687,2.05306
1250.04718,2.05291
1249.01748,2.05272
1247.98779,2.05245
1246.95810,2.05214
1245.92840,2.05178
1244.89871,2.05139
1243.86902,2.05099
1242.83933,2.05062
1241.80963,2.05029
1240.77994,2.05002
1239.75025,2.04980
1238.72055,2.04963
1237.69086,2.04951
1236.66117,2.04945
1235.63147,2.04946
1234.60178,2.04953
1233.57209,2.04964
1232.54240,2.04975
1231.51270,2.04984
1230.48301,2.04990
1229.45332,2.04994
1228.42362,2.04994
1227.39393,2.04991
1226.36424,2.04982
1225.33455,2.04964
1224.30485,2.04935
1223.27516,2.04896
1222.24547,2.04851
1221.21577,2.04802
1220.18608,2.04752
1219.15639,2.04701
1218.12670,2.04649
1217.09700,2.04599
1216.06731,2.04553
1215.03762,2.04513
1214.00792,2.04482
1212.97823,2.04462
1211.94854,2.04454
1210.91885,2.04460
1209.88915,2.04479
1208.85946,2.04507
1207.82977,2.04542
1206.80007,2.04584
1205.77038,2.04631
1204.74069,2.04681
1203.71100,2.04732
1202.68130,2.04779
1201.65161,2.04819
1200.62192,2.04848
1199.59222,2.04867
1198.56253,2.04874
1197.53284,2.04869
1196.50314,2.04853
1195.47345,2.04824
1194.44376,2.04781
1193.41407,2.04729
1192.38437,2.04671
1191.35468,2.04610
1190.32499,2.04546
1189.29529,2.04479
1188.26560,2.04412
1187.23591,2.04347
1186.20622,2.04288
1185.17652,2.04235
1184.14683,2.04185
1183.11714,2.04140
1182.08744,2.04100
1181.05775,2.04066
1180.02806,2.04037
1178.99837,2.04012
1177.96867,2.03988
1176.93898,2.03962
1175.90929,2.03935
1174.87959,2.03904
1173.84990,2.03869
1172.82021,2.03831
1171.79052,2.03788
1170.76082,2.03741
1169.73113,2.03692
1168.70144,2.03640
1167.67174,2.03586
1166.64205,2.03526
1165.61236,2.03463
1164.58266,2.03397
1163.55297,2.03329
1162.52328,2.03263
1161.49359,2.03198
1160.46389,2.03135
1159.43420,2.03075
1158.40451,2.03021
1157.37481,2.02975
1156.34512,2.02934
1155.31543,2.02899
1154.28574,2.02870
1153.25604,2.02846
1152.22635,2.02828
1151.19666,2.02818
1150.16696,2.02818
1149.13727,2.02826
1148.10758,2.02843
1147.07789,2.02868
1146.04819,2.02901
1145.01850,2.02941
1143.98881,2.02987
1142.95911,2.03038
1141.92942,2.03092
1140.89973,2.03150
1139.87004,2.03208
1138.84034,2.03263
1137.81065,2.03317
1136.78096,2.03369
1135.75126,2.03419
1134.72157,2.03467
1133.69188,2.03511
1132.66219,2.03548
1131.63249,2.03579
1130.60280,2.03603
1129.57311,2.03624
1128.54341,2.03642
1127.51372,2.03660
1126.48403,2.03680
1125.45433,2.03702
1124.42464,2.03726
1123.39495,2.03750
1122.36526,2.03777
1121.33556,2.03808
1120.30587,2.03845
1119.27618,2.03886
1118.24648,2.03933
1117.21679,2.03984
1116.18710,2.04037
1115.15741,2.04093
1114.12771,2.04153
1113.09802,2.04217
1112.06833,2.04283
1111.03863,2.04349
1110.00894,2.04412
1108.97925,2.04471
1107.94956,2.04524
1106.91986,2.04571
1105.89017,2.04611
1104.86048,2.04645
1103.83078,2.04670
1102.80109,2.04686
1101.77140,2.04690
1100.74171,2.04681
1099.71201,2.04656
1098.68232,2.04615
1097.65263,2.04561
1096.62293,2.04497
1095.59324,2.04424
1094.56355,2.04345
1093.53386,2.04260
1092.50416,2.04170
1091.47447,2.04080
1090.44478,2.03989
1089.41508,2.03900
1088.38539,2.03811
1087.35570,2.03724
1086.32600,2.03641
1085.29631,2.03564
1084.26662,2.03492
1083.23693,2.03429
1082.20723,2.03374
1081.17754,2.03330
1080.14785,2.03295
1079.11815,2.03266
1078.08846,2.03241
1077.05877,2.03219
1076.02908,2.03200
1074.99938,2.03180
1073.96969,2.03161
1072.94000,2.03146
1071.91030,2.03131
1070.88061,2.03115
1069.85092,2.03097
1068.82123,2.03075
1067.79153,2.03047
1066.76184,2.03013
1065.73215,2.02972
1064.70245,2.02923
1063.67276,2.02867
1062.64307,2.02809
1061.61338,2.02749
1060.58368,2.02689
1059.55399,2.02629
1058.52430,2.02569
1057.49460,2.02510
1056.46491,2.02452
1055.43522,2.02394
1054.40553,2.02337
1053.37583,2.02280
1052.34614,2.02226
1051.31645,2.02172
1050.28675,2.02117
1049.25706,2.02063
1048.22737,2.02007
1047.19767,2.01946
1046.16798,2.01878
1045.13829,2.01802
1044.10860,2.01718
1043.07890,2.01626
1042.04921,2.01526
1041.01952,2.01421
1039.98982,2.01312
1038.96013,2.01200
1037.93044,2.01085
1036.90075,2.00964
1035.87105,2.00834
1034.84136,2.00696
1033.81167,2.00554
1032.78197,2.00409
1031.75228,2.00266
1030.72259,2.00126
1029.69290,1.99991
1028.66320,1.99864
1027.63351,1.99744
1026.60382,1.99631
1025.57412,1.99524
1024.54443,1.99421
1023.51474,1.99321
1022.48505,1.99221
1021.45535,1.99120
1020.42566,1.99023
1019.39597,1.98929
1018.36627,1.98839
1017.33658,1.98752
1016.30689,1.98668
1015.27720,1.98583
1014.24750,1.98495
1013.21781,1.98401
1012.18812,1.98304
1011.15842,1.98206
1010.12873,1.98113
1009.09904,1.98029
1008.06934,1.97955
1007.03965,1.97892
1006.00996,1.97842
1004.98027,1.97807
1003.95057,1.97788
1002.92088,1.97780
1001.89119,1.97782
1000.86149,1.97790
999.83180,1.97803
998.80211,1.97818
997.77242,1.97835
996.74272,1.97854
995.71303,1.97873
994.68334,1.97891
993.65364,1.97906
992.62395,1.97917
991.59426,1.97922
990.56457,1.97919
989.53487,1.97908
988.50518,1.97892
987.47549,1.97875
986.44579,1.97861
985.41610,1.97850
984.38641,1.97843
983.35672,1.97837
982.32702,1.97833
981.29733,1.97833
980.26764,1.97837
979.23794,1.97843
978.20825,1.97849
977.17856,1.97853
976.14887,1.97855
975.11917,1.97854
974.08948,1.97849
973.05979,1.97840
972.03009,1.97829
971.00040,1.97817
969.97071,1.97806
968.94101,1.97796
967.91132,1.97787
966.88163,1.97777
965.85194,1.97765
964.82224,1.97754
963.79255,1.97747
962.76286,1.97747
961.73316,1.97753
960.70347,1.97765
959.67378,1.97781
958.64409,1.97799
957.61439,1.97819
956.58470,1.97843
955.55501,1.97872
954.52531,1.97902
953.49562,1.97935
952.46593,1.97966
951.43624,1.97998
950.40654,1.98028
949.37685,1.98061
948.34716,1.98098
947.31746,1.98139
946.28777,1.98181
945.25808,1.98226
944.22839,1.98272
943.19869,1.98318
942.16900,1.98364
941.13931,1.98408
940.10961,1.98455
939.07992,1.98502
938.05023,1.98551
937.02054,1.98601
935.99084,1.98648
934.96115,1.98691
933.93146,1.98727
932.90176,1.98755
931.87207,1.98778
930.84238,1.98796
929.81268,1.98808
928.78299,1.98814
927.75330,1.98815
926.72361,1.98811
925.69391,1.98805
924.66422,1.98798
923.63453,1.98788
922.60483,1.98773
921.57514,1.98754
920.54545,1.98736
919.51576,1.98719
918.48606,1.98704
917.45637,1.98689
916.42668,1.98674
915.39698,1.98659
914.36729,1.98642
913.33760,1.98622
912.30791,1.98597
911.27821,1.98568
910.24852,1.98534
909.21883,1.98499
908.18913,1.98464
907.15944,1.98430
906.12975,1.98396
905.10006,1.98360
904.07036,1.98321
903.04067,1.98280
902.01098,1.98235
900.98128,1.98185
899.95159,1.98131
898.92190,1.98072
897.89221,1.98003
896.86251,1.97921
895.83282,1.97821
894.80313,1.97696
893.77343,1.97543
892.74374,1.97360
891.71405,1.97148
890.68435,1.96908
889.65466,1.96648
888.62497,1.96381
887.59528,1.96120
886.56558,1.95878
885.53589,1.95667
884.50620,1.95495
883.47650,1.95371
882.44681,1.95302
881.41712,1.95295
880.38743,1.95357
879.35773,1.95497
878.32804,1.95721
877.29835,1.96028
876.26865,1.96414
875.23896,1.96869
874.20927,1.97373
873.17958,1.97905
872.14988,1.98446
871.12019,1.98981
870.09050,1.99496
869.06080,1.99980
868.03111,2.00421
867.00142,2.00812
865.97173,2.01148
864.94203,2.01431
863.91234,2.01662
862.88265,2.01842
861.85295,2.01968
860.82326,2.02044
859.79357,2.02078
858.76387,2.02074
857.73418,2.02044
856.70449,2.02001
855.67480,2.01960
854.64510,2.01932
853.61541,2.01918
852.58572,2.01917
851.55602,2.01926
850.52633,2.01940
849.49664,2.01955
848.46695,2.01973
847.43725,2.01995
846.40756,2.02022
845.37787,2.02048
844.34817,2.02072
843.31848,2.02091
842.28879,2.02103
841.25910,2.02108
840.22940,2.02104
839.19971,2.02090
838.17002,2.02065
837.14032,2.02027
836.11063,2.01983
835.08094,2.01941
834.05125,2.01906
833.02155,2.01887
831.99186,2.01888
830.96217,2.01911
829.93247,2.01951
828.90278,2.02002
827.87309,2.02060
826.84340,2.02124
825.81370,2.02195
824.78401,2.02272
823.75432,2.02354
822.72462,2.02435
821.69493,2.02510
820.66524,2.02577
819.63554,2.02640
818.60585,2.02699
817.57616,2.02752
816.54647,2.02801
815.51677,2.02846
814.48708,2.02885
813.45739,2.02919
812.42769,2.02954
811.39800,2.02998
810.36831,2.03052
809.33862,2.03112
808.30892,2.03175
807.27923,2.03242
806.24954,2.03309
805.21984,2.03370
804.19015,2.03420
803.16046,2.03458
802.13077,2.03485
801.10107,2.03502
800.07138,2.03504
799.04169,2.03485
798.01199,2.03445
796.98230,2.03389
795.95261,2.03328
794.92292,2.03270
793.89322,2.03220
792.86353,2.03177
791.83384,2.03145
790.80414,2.03125
789.77445,2.03118
788.74476,2.03128
787.71507,2.03155
786.68537,2.03197
785.65568,2.03247
784.62599,2.03302
783.59629,2.03371
782.56660,2.03452
781.53691,2.03533
780.50721,2.03609
779.47752,2.03679
778.44783,2.03744
777.41814,2.03806
776.38844,2.03863
775.35875,2.03906
774.32906,2.03935
773.29936,2.03952
772.26967,2.03967
771.23998,2.03984
770.21029,2.04002
769.18059,2.04018
768.15090,2.04029
767.12121,2.04036
766.09151,2.04042
765.06182,2.04045
764.03213,2.04043
763.00244,2.04037
761.97274,2.04026
760.94305,2.04012
759.91336,2.03998
758.88366,2.03985
757.85397,2.03960
756.82428,2.03921
755.79459,2.03877
754.76489,2.03837
753.73520,2.03808
752.70551,2.03790
751.67581,2.03783
750.64612,2.03782
749.61643,2.03788
748.58674,2.03801
747.55704,2.03821
746.52735,2.03850
745.49766,2.03887
744.46796,2.03929
743.43827,2.03980
742.40858,2.04041
741.37888,2.04112
740.34919,2.04191
739.31950,2.04276
738.28981,2.04367
737.26011,2.04460
736.23042,2.04548
735.20073,2.04622
734.17103,2.04677
733.14134,2.04711
732.11165,2.04733
731.08196,2.04754
730.05226,2.04775
729.02257,2.04796
727.99288,2.04816
726.96318,2.04832
725.93349,2.04842
724.90380,2.04846
723.87411,2.04852
722.84441,2.04864
721.81472,2.04886
720.78503,2.04919
719.75533,2.04966
718.72564,2.05030
717.69595,2.05114
716.66626,2.05220
715.63656,2.05342
714.60687,2.05478
713.57718,2.05626
712.54748,2.05773
711.51779,2.05906
710.48810,2.06019
709.45841,2.06118
708.42871,2.06211
707.39902,2.06300
706.36933,2.06381
705.33963,2.06451
704.30994,2.06510
703.28025,2.06555
702.25055,2.06582
701.22086,2.06590
700.19117,2.06586
699.16148,2.06575
698.13178,2.06556
697.10209,2.06529
696.07240,2.06494
695.04270,2.06454
694.01301,2.06415
692.98332,2.06377
691.95363,2.06334
690.92393,2.06285
689.89424,2.06236
688.86455,2.06189
687.83485,2.06138
686.80516,2.06083
685.77547,2.06033
684.74578,2.05997
683.71608,2.05969
682.68639,2.05940
681.65670,2.05909
680.62700,2.05887
679.59731,2.05876
678.56762,2.05870
677.53793,2.05869
676.50823,2.05873
675.47854,2.05884
674.44885,2.05904
673.41915,2.05933
672.38946,2.05961
671.35977,2.05982
670.33008,2.06002
669.30038,2.06023
668.27069,2.06038
667.24100,2.06036
666.21130,2.06036
665.18161,2.06044
664.15192,2.06049
663.12222,2.06041
662.09253,2.06019
661.06284,2.05984
660.03315,2.05940
659.00345,2.05881
657.97376,2.05809
656.94407,2.05736
655.91437,2.05662
654.88468,2.05576
653.85499,2.05472
652.82530,2.05352
651.79560,2.05221
650.76591,2.05098
649.73622,2.04997
648.70652,2.04917
647.67683,2.04849
646.64714,2.04801
645.61745,2.04792
644.58775,2.04819
643.55806,2.04869
642.52837,2.04940
641.49867,2.05038
640.46898,2.05146
639.43929,2.05250
638.40960,2.05362
637.37990,2.05487
636.35021,2.05621
635.32052,2.05751
634.29082,2.05866
633.26113,2.05957
632.23144,2.06015
631.20175,2.06030
630.17205,2.06006
629.14236,2.05954
628.11267,2.05880
627.08297,2.05806
626.05328,2.05756
625.02359,2.05735
623.99389,2.05735
622.96420,2.05747
621.93451,2.05780
620.90482,2.05835
619.87512,2.05899
618.84543,2.05967
617.81574,2.06038
616.78604,2.06112
615.75635,2.06187
614.72666,2.06267
613.69697,2.06358
612.66727,2.06447
611.63758,2.06521
610.60789,2.06521
609.57819,2.06521
608.54850,2.06521
607.51881,2.06521
606.48912,2.06521
605.45942,2.06521
604.42973,2.06521
603.40004,2.06521
602.37034,2.06521
601.34065,2.06521
600.31096,2.06521
599.28127,2.06521
