5997.96112,1.50504
5996.93142,1.53668
5995.90173,1.54660
5994.87204,1.53870
5993.84235,1.52685
5992.81265,1.52269
5991.78296,1.53714
5990.75327,1.54713
5989.72357,1.53812
5988.69388,1.53543
5987.66419,1.54986
5986.63450,1.56839
5985.60480,1.57980
5984.57511,1.55962
5983.54542,1.51734
5982.51572,1.50021
5981.48603,1.51945
5980.45634,1.54784
5979.42665,1.56088
5978.39695,1.55836
5977.36726,1.55732
5976.33757,1.55671
5975.30787,1.54389
5974.27818,1.53371
5973.24849,1.54115
5972.21879,1.54625
5971.18910,1.53444
5970.15941,1.52216
5969.12972,1.52431
5968.10002,1.52812
5967.07033,1.52589
5966.04064,1.52859
5965.01094,1.53714
5963.98125,1.54601
5962.95156,1.54804
5961.92187,1.53588
5960.89217,1.52193
5959.86248,1.53095
5958.83279,1.55626
5957.80309,1.56095
5956.77340,1.55149
5955.74371,1.55892
5954.71402,1.57325
5953.68432,1.56589
5952.65463,1.54813
5951.62494,1.53925
5950.59524,1.53461
5949.56555,1.53587
5948.53586,1.55143
5947.50617,1.57189
5946.47647,1.57407
5945.44678,1.55392
5944.41709,1.53615
5943.38739,1.54051
5942.35770,1.55411
5941.32801,1.55702
5940.29831,1.55362
5939.26862,1.55102
5938.23893,1.54760
5937.20924,1.55237
5936.17954,1.56614
5935.14985,1.56523
5934.12016,1.54938
5933.09046,1.53779
5932.06077,1.53280
5931.03108,1.53217
5930.00139,1.53550
5928.97169,1.53874
5927.94200,1.54217
5926.91231,1.55071
5925.88261,1.55999
5924.85292,1.57055
5923.82323,1.58073
5922.79354,1.57333
5921.76384,1.56519
5920.73415,1.57407
5919.70446,1.59151
5918.67476,1.60027
5917.64507,1.58587
5916.61538,1.56489
5915.58569,1.56329
5914.55599,1.58449
5913.52630,1.60160
5912.49661,1.59320
5911.46691,1.57834
5910.43722,1.57479
5909.40753,1.57382
5908.37784,1.56183
5907.34814,1.54749
5906.31845,1.54662
5905.28876,1.55758
5904.25906,1.56746
5903.22937,1.57040
5902.19968,1.57627
5901.16998,1.58615
5900.14029,1.58413
5899.11060,1.57360
5898.08091,1.57310
5897.05121,1.58744
5896.02152,1.59815
5894.99183,1.58270
5893.96213,1.55855
5892.93244,1.54585
5891.90275,1.54514
5890.87306,1.55869
5889.84336,1.57639
5888.81367,1.58422
5887.78398,1.57795
5886.75428,1.56345
5885.72459,1.56031
5884.69490,1.57824
5883.66521,1.59566
5882.63551,1.59281
5881.60582,1.58699
5880.57613,1.59378
5879.54643,1.60554
5878.51674,1.61137
5877.48705,1.60581
5876.45736,1.59552
5875.42766,1.59010
5874.39797,1.59101
5873.36828,1.59023
5872.33858,1.58038
5871.30889,1.57477
5870.27920,1.57917
5869.24951,1.57887
5868.21981,1.57169
5867.19012,1.56687
5866.16043,1.56401
5865.13073,1.55945
5864.10104,1.55974
5863.07135,1.57304
5862.04165,1.59148
5861.01196,1.59611
5859.98227,1.58350
5858.95258,1.57207
5857.92288,1.57151
5856.89319,1.57798
5855.86350,1.58172
5854.83380,1.57544
5853.80411,1.57298
5852.77442,1.57774
5851.74473,1.58139
5850.71503,1.59182
5849.68534,1.59902
5848.65565,1.58719
5847.62595,1.58252
5846.59626,1.59901
5845.56657,1.61366
5844.53688,1.61544
5843.50718,1.61414
5842.47749,1.61276
5841.44780,1.60402
5840.41810,1.59482
5839.38841,1.59697
5838.35872,1.59570
5837.32903,1.58546
5836.29933,1.59104
5835.26964,1.61103
5834.23995,1.61800
5833.21025,1.61133
5832.18056,1.60332
5831.15087,1.60207
5830.12118,1.60501
5829.09148,1.60835
5828.06179,1.61587
5827.03210,1.62342
5826.00240,1.62537
5824.97271,1.62091
5823.94302,1.62252
5822.91332,1.63456
5821.88363,1.62884
5820.85394,1.60895
5819.82425,1.60723
5818.79455,1.61210
5817.76486,1.60580
5816.73517,1.60189
5815.70547,1.60222
5814.67578,1.59928
5813.64609,1.59736
5812.61640,1.60314
5811.58670,1.60615
5810.55701,1.59993
5809.52732,1.59519
5808.49762,1.59883
5807.46793,1.60319
5806.43824,1.60888
5805.40855,1.62414
5804.37885,1.62789
5803.34916,1.60913
5802.31947,1.59553
5801.28977,1.59949
5800.26008,1.60700
5799.23039,1.60751
5798.20070,1.60813
5797.17100,1.61258
5796.14131,1.61105
5795.11162,1.60236
5794.08192,1.60470
5793.05223,1.62073
5792.02254,1.62703
5790.99285,1.61217
5789.96315,1.59960
5788.93346,1.60315
5787.90377,1.60852
5786.87407,1.61058
5785.84438,1.61227
5784.81469,1.61547
5783.78499,1.61791
5782.75530,1.61494
5781.72561,1.61764
5780.69592,1.63168
5779.66622,1.63665
5778.63653,1.61744
5777.60684,1.59959
5776.57714,1.61017
5775.54745,1.63073
5774.51776,1.63032
5773.48807,1.61737
5772.45837,1.61551
5771.42868,1.62055
5770.39899,1.61787
5769.36929,1.61373
5768.33960,1.61877
5767.30991,1.62347
5766.28022,1.62118
5765.25052,1.61916
5764.22083,1.61530
5763.19114,1.60689
5762.16144,1.60338
5761.13175,1.61033
5760.10206,1.61662
5759.07237,1.61209
5758.04267,1.60613
5757.01298,1.60600
5755.98329,1.60933
5754.95359,1.61531
5753.92390,1.62280
5752.89421,1.62657
5751.86452,1.62489
5750.83482,1.62517
5749.80513,1.62797
5748.77544,1.63035
5747.74574,1.63242
5746.71605,1.63541
5745.68636,1.63379
5744.65666,1.61951
5743.62697,1.60963
5742.59728,1.61170
5741.56759,1.60532
5740.53789,1.59934
5739.50820,1.61148
5738.47851,1.62143
5737.44881,1.61837
5736.41912,1.62290
5735.38943,1.63853
5734.35974,1.64232
5733.33004,1.62758
5732.30035,1.61233
5731.27066,1.61047
5730.24096,1.61669
5729.21127,1.61680
5728.18158,1.61640
5727.15189,1.61959
5726.12219,1.61307
5725.09250,1.60902
5724.06281,1.62578
5723.03311,1.64356
5722.00342,1.64010
5720.97373,1.63214
5719.94404,1.63435
5718.91434,1.63654
5717.88465,1.63231
5716.85496,1.63578
5715.82526,1.65301
5714.79557,1.65855
5713.76588,1.64229
5712.73619,1.62567
5711.70649,1.62020
5710.67680,1.62587
5709.64711,1.63197
5708.61741,1.63436
5707.58772,1.64347
5706.55803,1.65421
5705.52833,1.65223
5704.49864,1.64212
5703.46895,1.63375
5702.43926,1.62378
5701.40956,1.62065
5700.37987,1.63181
5699.35018,1.64207
5698.32048,1.64640
5697.29079,1.63965
5696.26110,1.62196
5695.23141,1.61669
5694.20171,1.62522
5693.17202,1.63113
5692.14233,1.63467
5691.11263,1.63672
5690.08294,1.63674
5689.05325,1.63960
5688.02356,1.64237
5686.99386,1.63737
5685.96417,1.62935
5684.93448,1.63571
5683.90478,1.65471
5682.87509,1.66032
5681.84540,1.64870
5680.81571,1.63831
5679.78601,1.63547
5678.75632,1.63583
5677.72663,1.63601
5676.69693,1.63763
5675.66724,1.63748
5674.63755,1.63329
5673.60786,1.63014
5672.57816,1.63024
5671.54847,1.63555
5670.51878,1.64179
5669.48908,1.64195
5668.45939,1.64343
5667.42970,1.64957
5666.40000,1.64559
5665.37031,1.63279
5664.34062,1.62843
5663.31093,1.63457
5662.28123,1.64327
5661.25154,1.64871
5660.22185,1.64285
5659.19215,1.62959
5658.16246,1.62123
5657.13277,1.61559
5656.10308,1.61081
5655.07338,1.61379
5654.04369,1.62631
5653.01400,1.63543
5651.98430,1.63199
5650.95461,1.62960
5649.92492,1.63577
5648.89523,1.64053
5647.86553,1.64487
5646.83584,1.65674
5645.80615,1.66508
5644.77645,1.66071
5643.74676,1.64766
5642.71707,1.63233
5641.68738,1.62581
5640.65768,1.62808
5639.62799,1.63077
5638.59830,1.63518
5637.56860,1.64178
5636.53891,1.64349
5635.50922,1.63933
5634.47952,1.64341
5633.44983,1.64898
5632.42014,1.64250
5631.39045,1.64455
5630.36075,1.65722
5629.33106,1.65726
5628.30137,1.64915
5627.27167,1.64629
5626.24198,1.64969
5625.21229,1.65461
5624.18260,1.65077
5623.15290,1.64150
5622.12321,1.64019
5621.09352,1.64914
5620.06382,1.65560
5619.03413,1.64555
5618.00444,1.63221
5616.97475,1.63458
5615.94505,1.64217
5614.91536,1.63920
5613.88567,1.63186
5612.85597,1.63273
5611.82628,1.63891
5610.79659,1.63869
5609.76690,1.63495
5608.73720,1.64028
5607.70751,1.65417
5606.67782,1.65637
5605.64812,1.63557
5604.61843,1.61847
5603.58874,1.62645
5602.55905,1.64146
5601.52935,1.63910
5600.49966,1.62606
5599.46997,1.62145
5598.44027,1.62552
5597.41058,1.63266
5596.38089,1.63896
5595.35119,1.63845
5594.32150,1.63722
5593.29181,1.63965
5592.26212,1.64408
5591.23242,1.64882
5590.20273,1.64842
5589.17304,1.64904
5588.14334,1.65970
5587.11365,1.66472
5586.08396,1.65815
5585.05427,1.65412
5584.02457,1.64974
5582.99488,1.64595
5581.96519,1.65018
5580.93549,1.65315
5579.90580,1.64749
5578.87611,1.64570
5577.84642,1.65379
5576.81672,1.66090
5575.78703,1.65950
5574.75734,1.64747
5573.72764,1.63335
5572.69795,1.62968
5571.66826,1.63899
5570.63857,1.64729
5569.60887,1.64173
5568.57918,1.63892
5567.54949,1.64578
5566.51979,1.64937
5565.49010,1.65441
5564.46041,1.66285
5563.43072,1.66515
5562.40102,1.65797
5561.37133,1.64902
5560.34164,1.64945
5559.31194,1.65781
5558.28225,1.66495
5557.25256,1.66995
5556.22286,1.67060
5555.19317,1.65852
5554.16348,1.64560
5553.13379,1.64538
5552.10409,1.65380
5551.07440,1.66153
5550.04471,1.65749
5549.01501,1.64800
5547.98532,1.65011
5546.95563,1.65919
5545.92594,1.66279
5544.89624,1.66102
5543.86655,1.66046
5542.83686,1.65876
5541.80716,1.64751
5540.77747,1.63468
5539.74778,1.63591
5538.71809,1.64657
5537.68839,1.65574
5536.65870,1.66187
5535.62901,1.66588
5534.59931,1.66428
5533.56962,1.65769
5532.53993,1.65891
5531.51024,1.67163
5530.48054,1.68033
5529.45085,1.68015
5528.42116,1.67791
5527.39146,1.67688
5526.36177,1.67344
5525.33208,1.66430
5524.30239,1.65922
5523.27269,1.66541
5522.24300,1.67118
5521.21331,1.67081
5520.18361,1.67419
5519.15392,1.68081
5518.12423,1.67853
5517.09453,1.66205
5516.06484,1.64716
5515.03515,1.64824
5514.00546,1.65683
5512.97576,1.66277
5511.94607,1.66168
5510.91638,1.65240
5509.88668,1.64677
5508.85699,1.65052
5507.82730,1.65345
5506.79761,1.65350
5505.76791,1.65418
5504.73822,1.64970
5503.70853,1.64359
5502.67883,1.64573
5501.64914,1.64908
5500.61945,1.65214
5499.58976,1.65857
5498.56006,1.65995
5497.53037,1.65948
5496.50068,1.66334
5495.47098,1.66313
5494.44129,1.65417
5493.41160,1.64624
5492.38191,1.64446
5491.35221,1.64765
5490.32252,1.65913
5489.29283,1.66929
5488.26313,1.66680
5487.23344,1.66195
5486.20375,1.65895
5485.17406,1.65635
5484.14436,1.66284
5483.11467,1.67329
5482.08498,1.67366
5481.05528,1.67157
5480.02559,1.67198
5478.99590,1.66685
5477.96620,1.66267
5476.93651,1.66662
5475.90682,1.66823
5474.87713,1.66271
5473.84743,1.66448
5472.81774,1.67179
5471.78805,1.66978
5470.75835,1.66582
5469.72866,1.66616
5468.69897,1.66178
5467.66928,1.65824
5466.63958,1.66452
5465.60989,1.67320
5464.58020,1.67420
5463.55050,1.66966
5462.52081,1.66424
5461.49112,1.65400
5460.46143,1.64562
5459.43173,1.64348
5458.40204,1.64158
5457.37235,1.64615
5456.34265,1.66160
5455.31296,1.67398
5454.28327,1.67546
5453.25358,1.67726
5452.22388,1.68403
5451.19419,1.68880
5450.16450,1.68891
5449.13480,1.68508
5448.10511,1.67872
5447.07542,1.67489
5446.04573,1.67345
5445.01603,1.66911
5443.98634,1.66992
5442.95665,1.67663
5441.92695,1.67682
5440.89726,1.66973
5439.86757,1.66150
5438.83787,1.65728
5437.80818,1.66318
5436.77849,1.67204
5435.74880,1.67605
5434.71910,1.67618
5433.68941,1.67489
5432.65972,1.67483
5431.63002,1.67311
5430.60033,1.66750
5429.57064,1.66734
5428.54095,1.66747
5427.51125,1.65712
5426.48156,1.65781
5425.45187,1.67534
5424.42217,1.68766
5423.39248,1.68811
5422.36279,1.68891
5421.33310,1.69139
5420.30340,1.68847
5419.27371,1.68447
5418.24402,1.67800
5417.21432,1.66831
5416.18463,1.66626
5415.15494,1.66929
5414.12525,1.66123
5413.09555,1.65061
5412.06586,1.65263
5411.03617,1.65403
5410.00647,1.65199
5408.97678,1.66037
5407.94709,1.67159
5406.91740,1.67611
5405.88770,1.67618
5404.85801,1.67075
5403.82832,1.66266
5402.79862,1.66583
5401.76893,1.67528
5400.73924,1.67336
5399.70954,1.66772
5398.67985,1.66929
5397.65016,1.66894
5396.62047,1.66987
5395.59077,1.67434
5394.56108,1.66715
5393.53139,1.66564
5392.50169,1.68226
5391.47200,1.68817
5390.44231,1.68558
5389.41262,1.68842
5388.38292,1.68751
5387.35323,1.68450
5386.32354,1.67510
5385.29384,1.65867
5384.26415,1.65932
5383.23446,1.67397
5382.20477,1.68248
5381.17507,1.67868
5380.14538,1.66655
5379.11569,1.66027
5378.08599,1.66656
5377.05630,1.66964
5376.02661,1.66809
5374.99692,1.67407
5373.96722,1.67896
5372.93753,1.67480
5371.90784,1.67311
5370.87814,1.67859
5369.84845,1.68141
5368.81876,1.68342
5367.78906,1.68860
5366.75937,1.68895
5365.72968,1.68714
5364.69999,1.69059
5363.67029,1.69250
5362.64060,1.69021
5361.61091,1.68503
5360.58121,1.67852
5359.55152,1.67711
5358.52183,1.67581
5357.49214,1.67291
5356.46244,1.67755
5355.43275,1.69232
5354.40306,1.70564
5353.37336,1.70038
5352.34367,1.68679
5351.31398,1.68311
5350.28429,1.68751
5349.25459,1.69507
5348.22490,1.70479
5347.19521,1.71258
5346.16551,1.71083
5345.13582,1.69273
5344.10613,1.67930
5343.07644,1.68677
5342.04674,1.69793
5341.01705,1.70411
5339.98736,1.71363
5338.95766,1.71871
5337.92797,1.70108
5336.89828,1.67879
5335.86859,1.66868
5334.83889,1.67211
5333.80920,1.68437
5332.77951,1.69653
5331.74981,1.70306
5330.72012,1.70529
5329.69043,1.70276
5328.66073,1.68969
5327.63104,1.67379
5326.60135,1.67004
5325.57166,1.67485
5324.54196,1.68443
5323.51227,1.70028
5322.48258,1.71044
5321.45288,1.70565
5320.42319,1.69284
5319.39350,1.68714
5318.36381,1.69529
5317.33411,1.70194
5316.30442,1.69656
5315.27473,1.68334
5314.24503,1.67458
5313.21534,1.67797
5312.18565,1.68258
5311.15596,1.68757
5310.12626,1.69848
5309.09657,1.70058
5308.06688,1.68437
5307.03718,1.67545
5306.00749,1.68497
5304.97780,1.68872
5303.94811,1.68590
5302.91841,1.69614
5301.88872,1.70701
5300.85903,1.70024
5299.82933,1.69220
5298.79964,1.69458
5297.76995,1.69990
5296.74026,1.70195
5295.71056,1.69881
5294.68087,1.69519
5293.65118,1.69537
5292.62148,1.69877
5291.59179,1.70430
5290.56210,1.70645
5289.53240,1.70606
5288.50271,1.70684
5287.47302,1.70859
5286.44333,1.71191
5285.41363,1.71452
5284.38394,1.71838
5283.35425,1.72194
5282.32455,1.71783
5281.29486,1.71989
5280.26517,1.73623
5279.23548,1.74324
5278.20578,1.73534
5277.17609,1.73427
5276.14640,1.73793
5275.11670,1.73998
5274.08701,1.74473
5273.05732,1.73904
5272.02763,1.72501
5270.99793,1.72127
5269.96824,1.73162
5268.93855,1.74832
5267.90885,1.76014
5266.87916,1.75804
5265.84947,1.74288
5264.81978,1.72679
5263.79008,1.72489
5262.76039,1.72903
5261.73070,1.72209
5260.70100,1.71714
5259.67131,1.72715
5258.64162,1.74064
5257.61193,1.74688
5256.58223,1.75268
5255.55254,1.75724
5254.52285,1.75191
5253.49315,1.74705
5252.46346,1.74804
5251.43377,1.75040
5250.40407,1.74608
5249.37438,1.73295
5248.34469,1.71789
5247.31500,1.71538
5246.28530,1.72598
5245.25561,1.73459
5244.22592,1.74128
5243.19622,1.75370
5242.16653,1.76347
5241.13684,1.76081
5240.10715,1.75025
5239.07745,1.74720
5238.04776,1.75749
5237.01807,1.77060
5235.98837,1.77959
5234.95868,1.78434
5233.92899,1.78756
5232.89930,1.79193
5231.86960,1.78613
5230.83991,1.77006
5229.81022,1.76539
5228.78052,1.77808
5227.75083,1.78806
5226.72114,1.77818
5225.69145,1.75885
5224.66175,1.75296
5223.63206,1.75753
5222.60237,1.76515
5221.57267,1.77743
5220.54298,1.79556
5219.51329,1.81493
5218.48360,1.81812
5217.45390,1.80188
5216.42421,1.78832
5215.39452,1.78732
5214.36482,1.78865
5213.33513,1.78627
5212.30544,1.78264
5211.27574,1.78175
5210.24605,1.78112
5209.21636,1.77958
5208.18667,1.78566
5207.15697,1.79048
5206.12728,1.78610
5205.09759,1.79239
5204.06789,1.80346
5203.03820,1.79656
5202.00851,1.78454
5200.97882,1.78961
5199.94912,1.80195
5198.91943,1.80052
5197.88974,1.78683
5196.86004,1.77504
5195.83035,1.77104
5194.80066,1.77908
5193.77097,1.79398
5192.74127,1.80051
5191.71158,1.79957
5190.68189,1.79722
5189.65219,1.79070
5188.62250,1.78617
5187.59281,1.78461
5186.56312,1.78081
5185.53342,1.78183
5184.50373,1.78373
5183.47404,1.78279
5182.44434,1.78045
5181.41465,1.77587
5180.38496,1.78046
5179.35527,1.79007
5178.32557,1.78716
5177.29588,1.77740
5176.26619,1.77872
5175.23649,1.78595
5174.20680,1.78476
5173.17711,1.79254
5172.14741,1.81144
5171.11772,1.81697
5170.08803,1.81668
5169.05834,1.82360
5168.02864,1.82613
5166.99895,1.82025
5165.96926,1.81064
5164.93956,1.79738
5163.90987,1.78660
5162.88018,1.78621
5161.85049,1.78565
5160.82079,1.78141
5159.79110,1.78933
5158.76141,1.80378
5157.73171,1.81002
5156.70202,1.81646
5155.67233,1.82796
5154.64264,1.83574
5153.61294,1.83212
5152.58325,1.81993
5151.55356,1.81086
5150.52386,1.81008
5149.49417,1.80628
5148.46448,1.79715
5147.43479,1.79345
5146.40509,1.79675
5145.37540,1.81035
5144.34571,1.82122
5143.31601,1.81668
5142.28632,1.80647
5141.25663,1.79086
5140.22694,1.78176
5139.19724,1.79077
5138.16755,1.80000
5137.13786,1.79699
5136.10816,1.79016
5135.07847,1.78689
5134.04878,1.79435
5133.01908,1.80651
5131.98939,1.80207
5130.95970,1.79107
5129.93001,1.79147
5128.90031,1.79530
5127.87062,1.79694
5126.84093,1.79366
5125.81123,1.78767
5124.78154,1.79338
5123.75185,1.80445
5122.72216,1.79993
5121.69246,1.78873
5120.66277,1.78732
5119.63308,1.79002
5118.60338,1.79387
5117.57369,1.79414
5116.54400,1.78642
5115.51431,1.78379
5114.48461,1.79160
5113.45492,1.79331
5112.42523,1.78248
5111.39553,1.78414
5110.36584,1.80029
5109.33615,1.80273
5108.30646,1.78794
5107.27676,1.76914
5106.24707,1.76136
5105.21738,1.76950
5104.18768,1.78782
5103.15799,1.80259
5102.12830,1.79629
5101.09861,1.77524
5100.06891,1.76202
5099.03922,1.76512
5098.00953,1.77421
5096.97983,1.78477
5095.95014,1.79429
5094.92045,1.79493
5093.89075,1.78734
5092.86106,1.77827
5091.83137,1.77296
5090.80168,1.77306
5089.77198,1.77697
5088.74229,1.78710
5087.71260,1.80208
5086.68290,1.80776
5085.65321,1.80123
5084.62352,1.79351
5083.59383,1.78994
5082.56413,1.79434
5081.53444,1.80190
5080.50475,1.80348
5079.47505,1.79576
5078.44536,1.78243
5077.41567,1.77687
5076.38598,1.77821
5075.35628,1.77827
5074.32659,1.78009
5073.29690,1.78218
5072.26720,1.77833
5071.23751,1.77031
5070.20782,1.76873
5069.17813,1.77508
5068.14843,1.77878
5067.11874,1.77280
5066.08905,1.76749
5065.05935,1.76816
5064.02966,1.76397
5062.99997,1.75878
5061.97027,1.75906
5060.94058,1.76210
5059.91089,1.77215
5058.88120,1.78113
5057.85150,1.78235
5056.82181,1.78576
5055.79212,1.78696
5054.76242,1.78385
5053.73273,1.78343
5052.70304,1.77930
5051.67335,1.77150
5050.64365,1.76997
5049.61396,1.77282
5048.58427,1.77267
5047.55457,1.77053
5046.52488,1.76526
5045.49519,1.75821
5044.46550,1.75547
5043.43580,1.75884
5042.40611,1.76830
5041.37642,1.77775
5040.34672,1.78065
5039.31703,1.78053
5038.28734,1.78376
5037.25765,1.78590
5036.22795,1.77433
5035.19826,1.76001
5034.16857,1.76400
5033.13887,1.77194
5032.10918,1.77171
5031.07949,1.77235
5030.04980,1.77090
5029.02010,1.77127
5027.99041,1.77740
5026.96072,1.78125
5025.93102,1.77927
5024.90133,1.77346
5023.87164,1.76664
5022.84194,1.76013
5021.81225,1.75145
5020.78256,1.74777
5019.75287,1.75840
5018.72317,1.76954
5017.69348,1.76684
5016.66379,1.75575
5015.63409,1.74975
5014.60440,1.75902
5013.57471,1.76781
5012.54502,1.76997
5011.51532,1.77654
5010.48563,1.77747
5009.45594,1.77713
5008.42624,1.78456
5007.39655,1.77851
5006.36686,1.75872
5005.33717,1.75132
5004.30747,1.75558
5003.27778,1.75606
5002.24809,1.75386
5001.21839,1.75404
5000.18870,1.75319
4999.15901,1.75238
4998.12932,1.75553
4997.09962,1.75782
4996.06993,1.75760
4995.04024,1.75866
4994.01054,1.75983
4992.98085,1.75822
4991.95116,1.75528
4990.92147,1.75018
4989.89177,1.74178
4988.86208,1.73665
4987.83239,1.74291
4986.80269,1.75801
4985.77300,1.76994
4984.74331,1.76921
4983.71361,1.75888
4982.68392,1.75540
4981.65423,1.75864
4980.62454,1.75681
4979.59484,1.75836
4978.56515,1.76671
4977.53546,1.76887
4976.50576,1.76468
4975.47607,1.76387
4974.44638,1.75940
4973.41669,1.74927
4972.38699,1.74550
4971.35730,1.74606
4970.32761,1.74319
4969.29791,1.74096
4968.26822,1.74649
4967.23853,1.75508
4966.20884,1.75910
4965.17914,1.75894
4964.14945,1.75555
4963.11976,1.74776
4962.09006,1.74095
4961.06037,1.74424
4960.03068,1.75369
4959.00099,1.75790
4957.97129,1.75375
4956.94160,1.74619
4955.91191,1.74211
4954.88221,1.74630
4953.85252,1.75210
4952.82283,1.74846
4951.79314,1.74104
4950.76344,1.74078
4949.73375,1.74566
4948.70406,1.74493
4947.67436,1.73661
4946.64467,1.73253
4945.61498,1.74118
4944.58528,1.74938
4943.55559,1.74805
4942.52590,1.74589
4941.49621,1.74760
4940.46651,1.75907
4939.43682,1.77452
4938.40713,1.77692
4937.37743,1.76575
4936.34774,1.75361
4935.31805,1.74622
4934.28836,1.74211
4933.25866,1.74106
4932.22897,1.74146
4931.19928,1.74269
4930.16958,1.74336
4929.13989,1.74386
4928.11020,1.74508
4927.08051,1.74618
4926.05081,1.74927
4925.02112,1.75058
4923.99143,1.75119
4922.96173,1.76187
4921.93204,1.77332
4920.90235,1.76823
4919.87266,1.75542
4918.84296,1.74658
4917.81327,1.74326
4916.78358,1.74322
4915.75388,1.74458
4914.72419,1.74701
4913.69450,1.75047
4912.66481,1.75847
4911.63511,1.76682
4910.60542,1.76528
4909.57573,1.75480
4908.54603,1.74651
4907.51634,1.74507
4906.48665,1.74553
4905.45695,1.74492
4904.42726,1.74537
4903.39757,1.74943
4902.36788,1.75515
4901.33818,1.75948
4900.30849,1.75867
4899.27880,1.75018
4898.24910,1.74482
4897.21941,1.74847
4896.18972,1.75306
4895.16003,1.75737
4894.13033,1.76240
4893.10064,1.76373
4892.07095,1.75967
4891.04125,1.75566
4890.01156,1.75367
4888.98187,1.75145
4887.95218,1.75426
4886.92248,1.76189
4885.89279,1.76465
4884.86310,1.76135
4883.83340,1.75812
4882.80371,1.75831
4881.77402,1.76003
4880.74433,1.76156
4879.71463,1.76172
4878.68494,1.75917
4877.65525,1.75684
4876.62555,1.75810
4875.59586,1.75973
4874.56617,1.75923
4873.53648,1.76091
4872.50678,1.76257
4871.47709,1.75724
4870.44740,1.75205
4869.41770,1.75521
4868.38801,1.76031
4867.35832,1.76048
4866.32862,1.75872
4865.29893,1.75735
4864.26924,1.76058
4863.23955,1.76947
4862.20985,1.77200
4861.18016,1.76656
4860.15047,1.76115
4859.12077,1.75555
4858.09108,1.75124
4857.06139,1.75178
4856.03170,1.75663
4855.00200,1.76226
4853.97231,1.75722
4852.94262,1.74545
4851.91292,1.74461
4850.88323,1.74711
4849.85354,1.74632
4848.82385,1.75439
4847.79415,1.76806
4846.76446,1.77219
4845.73477,1.76676
4844.70507,1.76395
4843.67538,1.76610
4842.64569,1.76562
4841.61600,1.76009
4840.58630,1.75436
4839.55661,1.75134
4838.52692,1.74964
4837.49722,1.75151
4836.46753,1.75634
4835.43784,1.76014
4834.40815,1.76312
4833.37845,1.76090
4832.34876,1.75519
4831.31907,1.75199
4830.28937,1.75284
4829.25968,1.75492
4828.22999,1.75594
4827.20029,1.76027
4826.17060,1.76456
4825.14091,1.76758
4824.11122,1.77020
4823.08152,1.76631
4822.05183,1.76001
4821.02214,1.75773
4819.99244,1.75526
4818.96275,1.74976
4817.93306,1.74636
4816.90337,1.74989
4815.87367,1.75942
4814.84398,1.76595
4813.81429,1.76104
4812.78459,1.75130
4811.75490,1.74966
4810.72521,1.75747
4809.69552,1.76299
4808.66582,1.76175
4807.63613,1.76466
4806.60644,1.76948
4805.57674,1.76440
4804.54705,1.75375
4803.51736,1.74914
4802.48767,1.75490
4801.45797,1.76094
4800.42828,1.76167
4799.39859,1.76256
4798.36889,1.76297
4797.33920,1.76238
4796.30951,1.76157
4795.27982,1.76072
4794.25012,1.76070
4793.22043,1.76058
4792.19074,1.75829
4791.16104,1.75473
4790.13135,1.75388
4789.10166,1.75969
4788.07196,1.76592
4787.04227,1.76375
4786.01258,1.75778
4784.98289,1.75719
4783.95319,1.76023
4782.92350,1.75909
4781.89381,1.75679
4780.86411,1.75659
4779.83442,1.75874
4778.80473,1.76367
4777.77504,1.76542
4776.74534,1.76097
4775.71565,1.75657
4774.68596,1.75714
4773.65626,1.75777
4772.62657,1.75642
4771.59688,1.75943
4770.56719,1.76471
4769.53749,1.76607
4768.50780,1.76663
4767.47811,1.76467
4766.44841,1.75784
4765.41872,1.75238
4764.38903,1.75296
4763.35934,1.75815
4762.32964,1.76112
4761.29995,1.76324
4760.27026,1.76746
4759.24056,1.76835
4758.21087,1.76602
4757.18118,1.76539
4756.15148,1.76354
4755.12179,1.75925
4754.09210,1.75743
4753.06241,1.75575
4752.03271,1.75327
4751.00302,1.75717
4749.97333,1.76684
4748.94363,1.77035
4747.91394,1.76650
4746.88425,1.76704
4745.85456,1.77384
4744.82486,1.77925
4743.79517,1.77889
4742.76548,1.77380
4741.73578,1.76885
4740.70609,1.76515
4739.67640,1.75889
4738.64671,1.75418
4737.61701,1.75754
4736.58732,1.76355
4735.55763,1.76448
4734.52793,1.76143
4733.49824,1.75644
4732.46855,1.75141
4731.43886,1.74812
4730.40916,1.74608
4729.37947,1.74922
4728.34978,1.75781
4727.32008,1.76169
4726.29039,1.75761
4725.26070,1.75582
4724.23101,1.75973
4723.20131,1.76261
4722.17162,1.76309
4721.14193,1.76596
4720.11223,1.77150
4719.08254,1.77302
4718.05285,1.76818
4717.02315,1.76683
4715.99346,1.77236
4714.96377,1.77353
4713.93408,1.76901
4712.90438,1.76809
4711.87469,1.77203
4710.84500,1.77162
4709.81530,1.76595
4708.78561,1.76452
4707.75592,1.76405
4706.72623,1.76246
4705.69653,1.76483
4704.66684,1.76518
4703.63715,1.76039
4702.60745,1.75837
4701.57776,1.76299
4700.54807,1.76727
4699.51838,1.76559
4698.48868,1.76550
4697.45899,1.76978
4696.42930,1.77104
4695.39960,1.76747
4694.36991,1.76249
4693.34022,1.75951
4692.31053,1.76023
4691.28083,1.76256
4690.25114,1.76445
4689.22145,1.76739
4688.19175,1.77007
4687.16206,1.76932
4686.13237,1.76796
4685.10268,1.77107
4684.07298,1.77483
4683.04329,1.77398
4682.01360,1.77181
4680.98390,1.76806
4679.95421,1.76274
4678.92452,1.76387
4677.89482,1.77142
4676.86513,1.77566
4675.83544,1.77463
4674.80575,1.77262
4673.77605,1.77201
4672.74636,1.77334
4671.71667,1.77593
4670.68697,1.77731
4669.65728,1.77630
4668.62759,1.77590
4667.59790,1.77463
4666.56820,1.77126
4665.53851,1.77036
4664.50882,1.77106
4663.47912,1.76954
4662.44943,1.77006
4661.41974,1.77471
4660.39005,1.77615
4659.36035,1.77175
4658.33066,1.76666
4657.30097,1.76525
4656.27127,1.76566
4655.24158,1.76584
4654.21189,1.76489
4653.18220,1.76223
4652.15250,1.76299
4651.12281,1.76666
4650.09312,1.76876
4649.06342,1.77230
4648.03373,1.77580
4647.00404,1.77576
4645.97435,1.77728
4644.94465,1.78096
4643.91496,1.77948
4642.88527,1.77357
4641.85557,1.77102
4640.82588,1.77164
4639.79619,1.77409
4638.76649,1.77671
4637.73680,1.77472
4636.70711,1.77122
4635.67742,1.77028
4634.64772,1.77202
4633.61803,1.77331
4632.58834,1.77183
4631.55864,1.77254
4630.52895,1.77420
4629.49926,1.77146
4628.46957,1.76895
4627.43987,1.76846
4626.41018,1.76557
4625.38049,1.76543
4624.35079,1.77055
4623.32110,1.77300
4622.29141,1.77150
4621.26172,1.77042
4620.23202,1.76951
4619.20233,1.76736
4618.17264,1.76653
4617.14294,1.76633
4616.11325,1.76544
4615.08356,1.76658
4614.05387,1.76748
4613.02417,1.76806
4611.99448,1.77033
4610.96479,1.77036
4609.93509,1.76859
4608.90540,1.76862
4607.87571,1.76770
4606.84602,1.76620
4605.81632,1.76749
4604.78663,1.76816
4603.75694,1.76723
4602.72724,1.76892
4601.69755,1.77086
4600.66786,1.76858
4599.63816,1.76598
4598.60847,1.76620
4597.57878,1.76435
4596.54909,1.75797
4595.51939,1.75329
4594.48970,1.75698
4593.46001,1.76510
4592.43031,1.76572
4591.40062,1.76246
4590.37093,1.76457
4589.34124,1.76762
4588.31154,1.77054
4587.28185,1.77211
4586.25216,1.76843
4585.22246,1.76802
4584.19277,1.77606
4583.16308,1.78142
4582.13339,1.77955
4581.10369,1.77801
4580.07400,1.77564
4579.04431,1.76936
4578.01461,1.76646
4576.98492,1.77162
4575.95523,1.77672
4574.92554,1.77603
4573.89584,1.77441
4572.86615,1.77342
4571.83646,1.77047
4570.80676,1.76743
4569.77707,1.76804
4568.74738,1.76977
4567.71769,1.76892
4566.68799,1.76803
4565.65830,1.77063
4564.62861,1.77422
4563.59891,1.77445
4562.56922,1.77193
4561.53953,1.76948
4560.50983,1.76979
4559.48014,1.77033
4558.45045,1.76727
4557.42076,1.76536
4556.39106,1.76867
4555.36137,1.77273
4554.33168,1.77446
4553.30198,1.77416
4552.27229,1.77032
4551.24260,1.76609
4550.21291,1.76502
4549.18321,1.76430
4548.15352,1.76496
4547.12383,1.76899
4546.09413,1.77270
4545.06444,1.77387
4544.03475,1.77324
4543.00506,1.77194
4541.97536,1.76870
4540.94567,1.76554
4539.91598,1.76533
4538.88628,1.76717
4537.85659,1.77207
4536.82690,1.77536
4535.79721,1.77159
4534.76751,1.76495
4533.73782,1.76134
4532.70813,1.76219
4531.67843,1.76567
4530.64874,1.76918
4529.61905,1.76998
4528.58936,1.76865
4527.55966,1.76735
4526.52997,1.76729
4525.50028,1.77062
4524.47058,1.77491
4523.44089,1.77458
4522.41120,1.76984
4521.38150,1.76827
4520.35181,1.77101
4519.32212,1.76936
4518.29243,1.76688
4517.26273,1.77164
4516.23304,1.77628
4515.20335,1.77393
4514.17365,1.76778
4513.14396,1.76149
4512.11427,1.76029
4511.08458,1.76638
4510.05488,1.77129
4509.02519,1.77023
4507.99550,1.77059
4506.96580,1.77403
4505.93611,1.77510
4504.90642,1.77566
4503.87673,1.77612
4502.84703,1.77288
4501.81734,1.76768
4500.78765,1.76458
4499.75795,1.76502
4498.72826,1.76681
4497.69857,1.76687
4496.66888,1.76582
4495.63918,1.76678
4494.60949,1.76902
4493.57980,1.76867
4492.55010,1.76596
4491.52041,1.76599
4490.49072,1.76705
4489.46103,1.76516
4488.43133,1.76432
4487.40164,1.76571
4486.37195,1.76737
4485.34225,1.76788
4484.31256,1.76809
4483.28287,1.77122
4482.25317,1.77552
4481.22348,1.77374
4480.19379,1.76681
4479.16410,1.76587
4478.13440,1.76980
4477.10471,1.77067
4476.07502,1.77216
4475.04532,1.77513
4474.01563,1.77414
4472.98594,1.77379
4471.95625,1.77727
4470.92655,1.77827
4469.89686,1.77889
4468.86717,1.78130
4467.83747,1.77941
4466.80778,1.77447
4465.77809,1.77228
4464.74840,1.77255
4463.71870,1.77225
4462.68901,1.77120
4461.65932,1.77162
4460.62962,1.77180
4459.59993,1.77050
4458.57024,1.77339
4457.54055,1.78023
4456.51085,1.78502
4455.48116,1.78711
4454.45147,1.78587
4453.42177,1.78070
4452.39208,1.77701
4451.36239,1.77947
4450.33269,1.78226
4449.30300,1.78052
4448.27331,1.77838
4447.24362,1.77728
4446.21392,1.77826
4445.18423,1.78187
4444.15454,1.78537
4443.12484,1.78812
4442.09515,1.78884
4441.06546,1.78995
4440.03577,1.79398
4439.00607,1.79497
4437.97638,1.79116
4436.94669,1.78825
4435.91699,1.78870
4434.88730,1.79146
4433.85761,1.79437
4432.82792,1.79543
4431.79822,1.79591
4430.76853,1.79507
4429.73884,1.79081
4428.70914,1.78933
4427.67945,1.79372
4426.64976,1.79722
4425.62007,1.79828
4424.59037,1.80043
4423.56068,1.80262
4422.53099,1.80025
4421.50129,1.79777
4420.47160,1.80251
4419.44191,1.80653
4418.41222,1.80588
4417.38252,1.80642
4416.35283,1.80535
4415.32314,1.80168
4414.29344,1.80138
4413.26375,1.80619
4412.23406,1.81095
4411.20436,1.81264
4410.17467,1.81411
4409.14498,1.81559
4408.11529,1.81514
4407.08559,1.81443
4406.05590,1.81499
4405.02621,1.81548
4403.99651,1.81446
4402.96682,1.81290
4401.93713,1.81284
4400.90744,1.81584
4399.87774,1.82135
4398.84805,1.82539
4397.81836,1.82592
4396.78866,1.82323
4395.75897,1.82142
4394.72928,1.82330
4393.69959,1.82512
4392.66989,1.82755
4391.64020,1.83051
4390.61051,1.83042
4389.58081,1.82825
4388.55112,1.82673
4387.52143,1.82698
4386.49174,1.82852
4385.46204,1.83122
4384.43235,1.83253
4383.40266,1.83025
4382.37296,1.82943
4381.34327,1.83221
4380.31358,1.83461
4379.28389,1.83603
4378.25419,1.83611
4377.22450,1.83376
4376.19481,1.83139
4375.16511,1.83094
4374.13542,1.83035
4373.10573,1.83043
4372.07603,1.83477
4371.04634,1.84050
4370.01665,1.84236
4368.98696,1.84076
4367.95726,1.83997
4366.92757,1.84090
4365.89788,1.84005
4364.86818,1.83745
4363.83849,1.83655
4362.80880,1.83716
4361.77911,1.83858
4360.74941,1.84219
4359.71972,1.84748
4358.69003,1.85185
4357.66033,1.85304
4356.63064,1.85208
4355.60095,1.85284
4354.57126,1.85548
4353.54156,1.85673
4352.51187,1.85408
4351.48218,1.84902
4350.45248,1.84874
4349.42279,1.85306
4348.39310,1.85522
4347.36341,1.85649
4346.33371,1.85831
4345.30402,1.85812
4344.27433,1.85631
4343.24463,1.85365
4342.21494,1.85122
4341.18525,1.85400
4340.15556,1.86121
4339.12586,1.86465
4338.09617,1.86440
4337.06648,1.86441
4336.03678,1.86184
4335.00709,1.85756
4333.97740,1.85594
4332.94770,1.85609
4331.91801,1.85743
4330.88832,1.86054
4329.85863,1.86166
4328.82893,1.85780
4327.79924,1.85538
4326.76955,1.85812
4325.73985,1.85881
4324.71016,1.85730
4323.68047,1.85746
4322.65078,1.85684
4321.62108,1.85605
4320.59139,1.85517
4319.56170,1.85183
4318.53200,1.84751
4317.50231,1.84444
4316.47262,1.84407
4315.44293,1.84622
4314.41323,1.84759
4313.38354,1.84603
4312.35385,1.84381
4311.32415,1.84306
4310.29446,1.84230
4309.26477,1.83997
4308.23508,1.83709
4307.20538,1.83497
4306.17569,1.83454
4305.14600,1.83647
4304.11630,1.83925
4303.08661,1.84049
4302.05692,1.83941
4301.02723,1.83815
4299.99753,1.83640
4298.96784,1.83286
4297.93815,1.83238
4296.90845,1.83644
4295.87876,1.84000
4294.84907,1.84064
4293.81937,1.83894
4292.78968,1.83718
4291.75999,1.83761
4290.73030,1.83775
4289.70060,1.83450
4288.67091,1.83151
4287.64122,1.83172
4286.61152,1.83258
4285.58183,1.83477
4284.55214,1.83856
4283.52245,1.84111
4282.49275,1.84169
4281.46306,1.84193
4280.43337,1.84464
4279.40367,1.84702
4278.37398,1.84613
4277.34429,1.84519
4276.31460,1.84723
4275.28490,1.85165
4274.25521,1.85513
4273.22552,1.85583
4272.19582,1.85353
4271.16613,1.85054
4270.13644,1.84860
4269.10675,1.84547
4268.07705,1.84432
4267.04736,1.84753
4266.01767,1.84809
4264.98797,1.84570
4263.95828,1.84550
4262.92859,1.84724
4261.89890,1.84962
4260.86920,1.84991
4259.83951,1.84845
4258.80982,1.84910
4257.78012,1.85272
4256.75043,1.85734
4255.72074,1.86079
4254.69104,1.86407
4253.66135,1.86536
4252.63166,1.86176
4251.60197,1.85747
4250.57227,1.85408
4249.54258,1.85159
4248.51289,1.85241
4247.48319,1.85335
4246.45350,1.85182
4245.42381,1.85045
4244.39412,1.84907
4243.36442,1.84534
4242.33473,1.84085
4241.30504,1.83947
4240.27534,1.84051
4239.24565,1.84206
4238.21596,1.84454
4237.18627,1.84691
4236.15657,1.84806
4235.12688,1.84878
4234.09719,1.84851
4233.06749,1.84482
4232.03780,1.83925
4231.00811,1.83724
4229.97842,1.84021
4228.94872,1.84298
4227.91903,1.84229
4226.88934,1.84155
4225.85964,1.84197
4224.82995,1.84154
4223.80026,1.84111
4222.77057,1.84066
4221.74087,1.83883
4220.71118,1.83858
4219.68149,1.84110
4218.65179,1.84249
4217.62210,1.84226
4216.59241,1.84206
4215.56271,1.84030
4214.53302,1.83759
4213.50333,1.83596
4212.47364,1.83593
4211.44394,1.83781
4210.41425,1.83896
4209.38456,1.83830
4208.35486,1.83719
4207.32517,1.83660
4206.29548,1.83877
4205.26579,1.84270
4204.23609,1.84388
4203.20640,1.84181
4202.17671,1.83979
4201.14701,1.83948
4200.11732,1.84103
4199.08763,1.84273
4198.05794,1.84122
4197.02824,1.84032
4195.99855,1.84521
4194.96886,1.85008
4193.93916,1.84990
4192.90947,1.84830
4191.87978,1.84779
4190.85009,1.84728
4189.82039,1.84645
4188.79070,1.84604
4187.76101,1.84584
4186.73131,1.84538
4185.70162,1.84383
4184.67193,1.84244
4183.64224,1.84476
4182.61254,1.84849
4181.58285,1.84947
4180.55316,1.84880
4179.52346,1.84809
4178.49377,1.84769
4177.46408,1.84664
4176.43438,1.84438
4175.40469,1.84356
4174.37500,1.84535
4173.34531,1.84699
4172.31561,1.84819
4171.28592,1.84875
4170.25623,1.84723
4169.22653,1.84605
4168.19684,1.84576
4167.16715,1.84555
4166.13746,1.84600
4165.10776,1.84593
4164.07807,1.84561
4163.04838,1.84538
4162.01868,1.84319
4160.98899,1.84036
4159.95930,1.84063
4158.92961,1.84215
4157.89991,1.84292
4156.87022,1.84543
4155.84053,1.84921
4154.81083,1.85214
4153.78114,1.85145
4152.75145,1.84659
4151.72176,1.84350
4150.69206,1.84389
4149.66237,1.84329
4148.63268,1.84146
4147.60298,1.84144
4146.57329,1.84242
4145.54360,1.84264
4144.51390,1.84481
4143.48421,1.84954
4142.45452,1.85262
4141.42483,1.85352
4140.39513,1.85253
4139.36544,1.84921
4138.33575,1.84735
4137.30605,1.84739
4136.27636,1.84687
4135.24667,1.84697
4134.21698,1.84725
4133.18728,1.84645
4132.15759,1.84776
4131.12790,1.85239
4130.09820,1.85570
4129.06851,1.85564
4128.03882,1.85422
4127.00913,1.85218
4125.97943,1.84911
4124.94974,1.84610
4123.92005,1.84689
4122.89035,1.85133
4121.86066,1.85295
4120.83097,1.84953
4119.80128,1.84775
4118.77158,1.85040
4117.74189,1.85128
4116.71220,1.84833
4115.68250,1.84681
4114.65281,1.84880
4113.62312,1.85118
4112.59343,1.85029
4111.56373,1.84787
4110.53404,1.84892
4109.50435,1.85281
4108.47465,1.85582
4107.44496,1.85682
4106.41527,1.85808
4105.38557,1.86089
4104.35588,1.86120
4103.32619,1.85846
4102.29650,1.85779
4101.26680,1.85930
4100.23711,1.85746
4099.20742,1.85436
4098.17772,1.85542
4097.14803,1.85830
4096.11834,1.85945
4095.08865,1.85917
4094.05895,1.85986
4093.02926,1.85988
4091.99957,1.85694
4090.96987,1.85628
4089.94018,1.86064
4088.91049,1.86280
4087.88080,1.85907
4086.85110,1.85606
4085.82141,1.85705
4084.79172,1.85950
4083.76202,1.86113
4082.73233,1.86206
4081.70264,1.86268
4080.67295,1.85955
4079.64325,1.85545
4078.61356,1.85615
4077.58387,1.85818
4076.55417,1.85937
4075.52448,1.86226
4074.49479,1.86638
4073.46510,1.86853
4072.43540,1.86631
4071.40571,1.86248
4070.37602,1.86149
4069.34632,1.86251
4068.31663,1.86398
4067.28694,1.86612
4066.25724,1.86679
4065.22755,1.86689
4064.19786,1.86863
4063.16817,1.87043
4062.13847,1.86940
4061.10878,1.86509
4060.07909,1.86200
4059.04939,1.86444
4058.01970,1.86995
4056.99001,1.87197
4055.96032,1.86858
4054.93062,1.86340
4053.90093,1.86202
4052.87124,1.86620
4051.84154,1.86836
4050.81185,1.86556
4049.78216,1.86515
4048.75247,1.86754
4047.72277,1.86884
4046.69308,1.87027
4045.66339,1.87051
4044.63369,1.86793
4043.60400,1.86650
4042.57431,1.86844
4041.54462,1.86832
4040.51492,1.86516
4039.48523,1.86638
4038.45554,1.87012
4037.42584,1.86948
4036.39615,1.86730
4035.36646,1.86835
4034.33677,1.87117
4033.30707,1.87300
4032.27738,1.87259
4031.24769,1.87032
4030.21799,1.86899
4029.18830,1.86987
4028.15861,1.87032
4027.12891,1.86896
4026.09922,1.86714
4025.06953,1.86725
4024.03984,1.86986
4023.01014,1.87190
4021.98045,1.87169
4020.95076,1.87101
4019.92106,1.87181
4018.89137,1.87268
4017.86168,1.87197
4016.83199,1.86949
4015.80229,1.86694
4014.77260,1.86679
4013.74291,1.86743
4012.71321,1.86867
4011.68352,1.87223
4010.65383,1.87523
4009.62414,1.87368
4008.59444,1.86935
4007.56475,1.86942
4006.53506,1.87387
4005.50536,1.87608
4004.47567,1.87700
4003.44598,1.87876
4002.41629,1.87783
4001.38659,1.87413
4000.35690,1.87175
3999.32721,1.87109
3998.29751,1.87096
3997.26782,1.87087
3996.23813,1.86922
3995.20844,1.86921
3994.17874,1.87289
3993.14905,1.87726
3992.11936,1.87885
3991.08966,1.87580
3990.05997,1.87249
3989.03028,1.87173
3988.00058,1.87245
3986.97089,1.87578
3985.94120,1.87923
3984.91151,1.87690
3983.88181,1.87208
3982.85212,1.87069
3981.82243,1.87131
3980.79273,1.87385
3979.76304,1.87888
3978.73335,1.88146
3977.70366,1.87989
3976.67396,1.87779
3975.64427,1.87674
3974.61458,1.87732
3973.58488,1.87607
3972.55519,1.87033
3971.52550,1.86662
3970.49581,1.86893
3969.46611,1.87322
3968.43642,1.87685
3967.40673,1.87869
3966.37703,1.87794
3965.34734,1.87731
3964.31765,1.87714
3963.28796,1.87563
3962.25826,1.87144
3961.22857,1.86832
3960.19888,1.87191
3959.16918,1.87728
3958.13949,1.87966
3957.10980,1.88061
3956.08011,1.88082
3955.05041,1.88040
3954.02072,1.87915
3952.99103,1.87745
3951.96133,1.87828
3950.93164,1.87990
3949.90195,1.87892
3948.87225,1.87813
3947.84256,1.87532
3946.81287,1.86979
3945.78318,1.87016
3944.75348,1.87815
3943.72379,1.88368
3942.69410,1.87695
3941.66440,1.86893
3940.63471,1.86949
3939.60502,1.87383
3938.57533,1.87564
3937.54563,1.87213
3936.51594,1.86945
3935.48625,1.87265
3934.45655,1.87781
3933.42686,1.87877
3932.39717,1.87369
3931.36748,1.86875
3930.33778,1.86664
3929.30809,1.86447
3928.27840,1.86329
3927.24870,1.86587
3926.21901,1.87107
3925.18932,1.87131
3924.15963,1.86553
3923.12993,1.86369
3922.10024,1.86708
3921.07055,1.87189
3920.04085,1.87221
3919.01116,1.86911
3917.98147,1.86855
3916.95178,1.86406
3915.92208,1.85623
3914.89239,1.85605
3913.86270,1.86035
3912.83300,1.86224
3911.80331,1.86203
3910.77362,1.86164
3909.74392,1.86027
3908.71423,1.85882
3907.68454,1.85894
3906.65485,1.85950
3905.62515,1.86187
3904.59546,1.86497
3903.56577,1.86498
3902.53607,1.86110
3901.50638,1.85425
3900.47669,1.85332
3899.44700,1.85107
3898.41730,1.84432
3897.38761,1.84598
3896.35792,1.85379
3895.32822,1.86050
3894.29853,1.86293
3893.26884,1.86443
3892.23915,1.86247
3891.20945,1.85008
3890.17976,1.84366
3889.15007,1.84835
3888.12037,1.85747
3887.09068,1.86867
3886.06099,1.86567
3885.03130,1.84712
3884.00160,1.84425
3882.97191,1.85561
3881.94222,1.87153
3880.91252,1.87247
3879.88283,1.84989
3878.85314,1.84143
3877.82344,1.84812
3876.79375,1.85655
3875.76406,1.86374
3874.73437,1.86285
3873.70467,1.85059
3872.67498,1.84931
3871.64529,1.86182
3870.61559,1.87092
3869.58590,1.85310
3868.55621,1.83662
3867.52652,1.84207
3866.49682,1.85706
3865.46713,1.86264
3864.43744,1.85038
3863.40774,1.84838
3862.37805,1.85355
3861.34836,1.84963
3860.31867,1.84683
3859.28897,1.85258
3858.25928,1.86010
3857.22959,1.86062
3856.19989,1.86317
3855.17020,1.88194
3854.14051,1.89537
3853.11082,1.86324
3852.08112,1.83610
3851.05143,1.83314
3850.02174,1.84068
3848.99204,1.84697
3847.96235,1.85088
3846.93266,1.85515
3845.90297,1.86089
3844.87327,1.86406
3843.84358,1.85610
3842.81389,1.84876
3841.78419,1.85292
3840.75450,1.85479
3839.72481,1.85442
3838.69511,1.85964
3837.66542,1.85275
3836.63573,1.84620
3835.60604,1.84832
3834.57634,1.84735
3833.54665,1.85192
3832.51696,1.85890
3831.48726,1.85193
3830.45757,1.84352
3829.42788,1.84627
3828.39819,1.85492
3827.36849,1.86018
3826.33880,1.85381
3825.30911,1.84825
3824.27941,1.85303
3823.24972,1.86561
3822.22003,1.87820
3821.19034,1.86517
3820.16064,1.84216
3819.13095,1.84518
3818.10126,1.86002
3817.07156,1.87248
3816.04187,1.85957
3815.01218,1.84065
3813.98249,1.84409
3812.95279,1.85420
3811.92310,1.86157
3810.89341,1.86426
3809.86371,1.86110
3808.83402,1.86047
3807.80433,1.86419
3806.77464,1.85547
3805.74494,1.84724
3804.71525,1.85778
3803.68556,1.87802
3802.65586,1.89328
3801.62617,1.87912
3800.59648,1.85116
3799.56678,1.84719
3798.53709,1.85756
3797.50740,1.87004
3796.47771,1.86847
3795.44801,1.85736
3794.41832,1.85417
3793.38863,1.85660
3792.35893,1.85920
3791.32924,1.86094
3790.29955,1.86166
3789.26986,1.86157
3788.24016,1.86325
3787.21047,1.86732
3786.18078,1.86996
3785.15108,1.86744
3784.12139,1.86172
3783.09170,1.85949
3782.06201,1.86227
3781.03231,1.86986
3780.00262,1.87275
3778.97293,1.86199
3777.94323,1.85783
3776.91354,1.86551
3775.88385,1.87345
3774.85416,1.87378
3773.82446,1.86974
3772.79477,1.87011
3771.76508,1.87617
3770.73538,1.87903
3769.70569,1.86852
3768.67600,1.86198
3767.64631,1.86991
3766.61661,1.87880
3765.58692,1.87453
3764.55723,1.86794
3763.52753,1.87073
3762.49784,1.87614
3761.46815,1.88122
3760.43845,1.88455
3759.40876,1.87778
3758.37907,1.87293
3757.34938,1.87636
3756.31968,1.87335
3755.28999,1.87028
3754.26030,1.88270
3753.23060,1.90000
3752.20091,1.88938
3751.17122,1.87305
3750.14153,1.87866
3749.11183,1.87653
3748.08214,1.87260
3747.05245,1.88164
3746.02275,1.90058
3744.99306,1.90647
3743.96337,1.86990
3742.93368,1.86361
3741.90398,1.87380
3740.87429,1.87882
3739.84460,1.88520
3738.81490,1.89657
3737.78521,1.90428
3736.75552,1.90629
3735.72583,1.89435
3734.69613,1.87290
3733.66644,1.87493
3732.63675,1.88707
3731.60705,1.88634
3730.57736,1.88505
3729.54767,1.89060
3728.51798,1.89504
3727.48828,1.89528
3726.45859,1.89382
3725.42890,1.89202
3724.39920,1.89385
3723.36951,1.90091
3722.33982,1.90215
3721.31012,1.89868
3720.28043,1.90279
3719.25074,1.90652
3718.22105,1.90378
3717.19135,1.90518
3716.16166,1.91235
3715.13197,1.91766
3714.10227,1.92381
3713.07258,1.93393
3712.04289,1.93010
3711.01320,1.92056
3709.98350,1.92076
3708.95381,1.91485
3707.92412,1.91264
3706.89442,1.92065
3705.86473,1.93022
3704.83504,1.93594
3703.80535,1.94180
3702.77565,1.94868
3701.74596,1.94313
3700.71627,1.93166
3699.68657,1.93205
3698.65688,1.93840
3697.62719,1.94498
3696.59750,1.94940
3695.56780,1.94991
3694.53811,1.95237
3693.50842,1.96069
3692.47872,1.97186
3691.44903,1.97310
3690.41934,1.96461
3689.38965,1.96518
3688.35995,1.95927
3687.33026,1.95022
3686.30057,1.95445
3685.27087,1.96266
3684.24118,1.96776
3683.21149,1.97217
3682.18179,1.97841
3681.15210,1.98396
3680.12241,1.98422
3679.09272,1.98060
3678.06302,1.99097
3677.03333,2.01626
3676.00364,2.01781
3674.97394,1.97351
3673.94425,1.96370
3672.91456,1.98162
3671.88487,2.00635
3670.85517,2.01686
3669.82548,2.00211
3668.79579,1.98902
3667.76609,1.98258
3666.73640,1.98365
3665.70671,1.99229
3664.67702,2.00048
3663.64732,2.00300
3662.61763,2.00454
3661.58794,2.00848
3660.55824,2.01054
3659.52855,2.01039
3658.49886,2.01458
3657.46917,2.02211
3656.43947,2.01448
3655.40978,1.99740
3654.38009,2.00106
3653.35039,2.01791
3652.32070,2.03297
3651.29101,2.03806
3650.26132,2.02738
3649.23162,2.01081
3648.20193,2.00523
3647.17224,2.00545
3646.14254,2.00498
3645.11285,2.00979
3644.08316,2.01857
3643.05346,2.02240
3642.02377,2.01768
3640.99408,2.01585
3639.96439,2.02132
3638.93469,2.02479
3637.90500,2.02134
3636.87531,2.01926
3635.84561,2.02713
3634.81592,2.03491
3633.78623,2.02968
3632.75654,2.02497
3631.72684,2.03244
3630.69715,2.04811
3629.66746,2.05407
3628.63776,2.02360
3627.60807,2.00888
3626.57838,2.01640
3625.54869,2.02523
3624.51899,2.03259
3623.48930,2.03755
3622.45961,2.03888
3621.42991,2.04130
3620.40022,2.04233
3619.37053,2.03644
3618.34084,2.02851
3617.31114,2.02566
3616.28145,2.03133
3615.25176,2.03618
3614.22206,2.03599
3613.19237,2.03554
3612.16268,2.03281
3611.13299,2.03672
3610.10329,2.04426
3609.07360,2.03834
3608.04391,2.02668
3607.01421,2.02291
3605.98452,2.02547
3604.95483,2.03350
3603.92513,2.04380
3602.89544,2.05194
3601.86575,2.05535
3600.83606,2.05211
3599.80636,2.04742
3598.77667,2.04508
3597.74698,2.04503
3596.71728,2.04901
3595.68759,2.05249
3594.65790,2.05186
3593.62821,2.04862
3592.59851,2.04506
3591.56882,2.04641
3590.53913,2.05149
3589.50943,2.05203
3588.47974,2.04348
3587.45005,2.03361
3586.42036,2.02960
3585.39066,2.03566
3584.36097,2.04601
3583.33128,2.04881
3582.30158,2.04570
3581.27189,2.04571
3580.24220,2.04827
3579.21251,2.04998
3578.18281,2.05233
3577.15312,2.05285
3576.12343,2.04985
3575.09373,2.04701
3574.06404,2.04670
3573.03435,2.05056
3572.00465,2.05509
3570.97496,2.05637
3569.94527,2.06009
3568.91558,2.06591
3567.88588,2.06004
3566.85619,2.04259
3565.82650,2.03028
3564.79680,2.03276
3563.76711,2.04201
3562.73742,2.04498
3561.70773,2.04635
3560.67803,2.04887
3559.64834,2.04565
3558.61865,2.04219
3557.58895,2.04390
3556.55926,2.04655
3555.52957,2.04888
3554.49988,2.05481
3553.47018,2.06076
3552.44049,2.05715
3551.41080,2.04987
3550.38110,2.04852
3549.35141,2.05128
3548.32172,2.05790
3547.29203,2.06439
3546.26233,2.06387
3545.23264,2.05973
3544.20295,2.05669
3543.17325,2.05281
3542.14356,2.04646
3541.11387,2.04404
3540.08418,2.04917
3539.05448,2.05663
3538.02479,2.06278
3536.99510,2.06329
3535.96540,2.05686
3534.93571,2.05459
3533.90602,2.05815
3532.87632,2.06025
3531.84663,2.05876
3530.81694,2.05575
3529.78725,2.05521
3528.75755,2.05590
3527.72786,2.05506
3526.69817,2.05502
3525.66847,2.05646
3524.63878,2.05827
3523.60909,2.05778
3522.57940,2.05367
3521.54970,2.05048
3520.52001,2.05156
3519.49032,2.05661
3518.46062,2.06316
3517.43093,2.06695
3516.40124,2.06546
3515.37155,2.06153
3514.34185,2.05876
3513.31216,2.05638
3512.28247,2.05315
3511.25277,2.05183
3510.22308,2.05270
3509.19339,2.04926
3508.16370,2.04238
3507.13400,2.04187
3506.10431,2.04869
3505.07462,2.05563
3504.04492,2.05819
3503.01523,2.05451
3501.98554,2.04958
3500.95585,2.05136
3499.92615,2.05434
3498.89646,2.05335
3497.86677,2.05223
3496.83707,2.05008
3495.80738,2.04776
3494.77769,2.05060
3493.74799,2.05619
3492.71830,2.05837
3491.68861,2.05796
3490.65892,2.05873
3489.62922,2.06077
3488.59953,2.06087
3487.56984,2.05642
3486.54014,2.05090
3485.51045,2.04833
3484.48076,2.05035
3483.45107,2.05428
3482.42137,2.05594
3481.39168,2.05623
3480.36199,2.05531
3479.33229,2.05172
3478.30260,2.04843
3477.27291,2.04729
3476.24322,2.04558
3475.21352,2.04629
3474.18383,2.05235
3473.15414,2.05508
3472.12444,2.05212
3471.09475,2.05220
3470.06506,2.05551
3469.03537,2.05675
3468.00567,2.05705
3466.97598,2.05677
3465.94629,2.05418
3464.91659,2.05341
3463.88690,2.05490
3462.85721,2.05218
3461.82752,2.04823
3460.79782,2.05005
3459.76813,2.05282
3458.73844,2.05135
3457.70874,2.04809
3456.67905,2.04514
3455.64936,2.04399
3454.61966,2.04496
3453.58997,2.04576
3452.56028,2.04597
3451.53059,2.04852
3450.50089,2.05293
3449.47120,2.05371
3448.44151,2.05190
3447.41181,2.04838
3446.38212,2.04273
3445.35243,2.04276
3444.32274,2.04892
3443.29304,2.05208
3442.26335,2.04923
3441.23366,2.04740
3440.20396,2.04897
3439.17427,2.05014
3438.14458,2.04933
3437.11489,2.04866
3436.08519,2.04835
3435.05550,2.04631
3434.02581,2.04480
3432.99611,2.04432
3431.96642,2.04378
3430.93673,2.04317
3429.90704,2.04118
3428.87734,2.03983
3427.84765,2.04184
3426.81796,2.04601
3425.78826,2.04983
3424.75857,2.05199
3423.72888,2.05347
3422.69919,2.05475
3421.66949,2.05407
3420.63980,2.05175
3419.61011,2.04994
3418.58041,2.04853
3417.55072,2.04601
3416.52103,2.04371
3415.49133,2.04431
3414.46164,2.04711
3413.43195,2.04953
3412.40226,2.05169
3411.37256,2.05410
3410.34287,2.05434
3409.31318,2.05174
3408.28348,2.04701
3407.25379,2.04083
3406.22410,2.03749
3405.19441,2.04006
3404.16471,2.04323
3403.13502,2.04171
3402.10533,2.03872
3401.07563,2.03734
3400.04594,2.03724
3399.01625,2.03706
3397.98656,2.03737
3396.95686,2.04033
3395.92717,2.04327
3394.89748,2.04288
3393.86778,2.04076
3392.83809,2.03998
3391.80840,2.04048
3390.77871,2.03935
3389.74901,2.03661
3388.71932,2.03533
3387.68963,2.03585
3386.65993,2.03648
3385.63024,2.03817
3384.60055,2.04036
3383.57086,2.03972
3382.54116,2.03767
3381.51147,2.03749
3380.48178,2.03672
3379.45208,2.03434
3378.42239,2.03577
3377.39270,2.04021
3376.36300,2.04043
3375.33331,2.03878
3374.30362,2.04190
3373.27393,2.04511
3372.24423,2.04297
3371.21454,2.04131
3370.18485,2.04246
3369.15515,2.04144
3368.12546,2.03985
3367.09577,2.03977
3366.06608,2.03965
3365.03638,2.04064
3364.00669,2.04105
3362.97700,2.03856
3361.94730,2.03567
3360.91761,2.03482
3359.88792,2.03570
3358.85823,2.03781
3357.82853,2.03929
3356.79884,2.03828
3355.76915,2.03728
3354.73945,2.03754
3353.70976,2.03785
3352.68007,2.03909
3351.65038,2.04033
3350.62068,2.04029
3349.59099,2.03987
3348.56130,2.03895
3347.53160,2.03856
3346.50191,2.03866
3345.47222,2.03738
3344.44253,2.03607
3343.41283,2.03623
3342.38314,2.03675
3341.35345,2.03772
3340.32375,2.03965
3339.29406,2.03969
3338.26437,2.03714
3337.23467,2.03598
3336.20498,2.03683
3335.17529,2.03701
3334.14560,2.03519
3333.11590,2.03221
3332.08621,2.03048
3331.05652,2.03103
3330.02682,2.03257
3328.99713,2.03405
3327.96744,2.03603
3326.93775,2.03886
3325.90805,2.04092
3324.87836,2.04113
3323.84867,2.04128
3322.81897,2.04338
3321.78928,2.04617
3320.75959,2.04730
3319.72990,2.04609
3318.70020,2.04246
3317.67051,2.03828
3316.64082,2.03685
3315.61112,2.03707
3314.58143,2.03582
3313.55174,2.03505
3312.52205,2.03582
3311.49235,2.03553
3310.46266,2.03523
3309.43297,2.03556
3308.40327,2.03457
3307.37358,2.03290
3306.34389,2.03261
3305.31420,2.03416
3304.28450,2.03566
3303.25481,2.03525
3302.22512,2.03458
3301.19542,2.03600
3300.16573,2.03753
3299.13604,2.03660
3298.10634,2.03571
3297.07665,2.03514
3296.04696,2.03351
3295.01727,2.03278
3293.98757,2.03239
3292.95788,2.03160
3291.92819,2.03262
3290.89849,2.03576
3289.86880,2.03690
3288.83911,2.03391
3287.80942,2.03110
3286.77972,2.03083
3285.75003,2.03063
3284.72034,2.03000
3283.69064,2.03087
3282.66095,2.03411
3281.63126,2.03788
3280.60157,2.03797
3279.57187,2.03348
3278.54218,2.02938
3277.51249,2.02879
3276.48279,2.02898
3275.45310,2.02939
3274.42341,2.03215
3273.39372,2.03378
3272.36402,2.03138
3271.33433,2.03015
3270.30464,2.03173
3269.27494,2.03186
3268.24525,2.03143
3267.21556,2.03083
3266.18586,2.02938
3265.15617,2.03102
3264.12648,2.03317
3263.09679,2.03115
3262.06709,2.02948
3261.03740,2.03034
3260.00771,2.03247
3258.97801,2.03498
3257.94832,2.03515
3256.91863,2.03404
3255.88894,2.03323
3254.85924,2.03298
3253.82955,2.03369
3252.79986,2.03254
3251.77016,2.02915
3250.74047,2.02748
3249.71078,2.03065
3248.68109,2.03574
3247.65139,2.03732
3246.62170,2.03547
3245.59201,2.03264
3244.56231,2.03067
3243.53262,2.03169
3242.50293,2.03352
3241.47324,2.03228
3240.44354,2.02966
3239.41385,2.02873
3238.38416,2.02846
3237.35446,2.02641
3236.32477,2.02506
3235.29508,2.02689
3234.26539,2.02887
3233.23569,2.02998
3232.20600,2.03185
3231.17631,2.03468
3230.14661,2.03610
3229.11692,2.03394
3228.08723,2.03091
3227.05753,2.02985
3226.02784,2.02975
3224.99815,2.02881
3223.96846,2.02685
3222.93876,2.02589
3221.90907,2.02694
3220.87938,2.02860
3219.84968,2.02875
3218.81999,2.02710
3217.79030,2.02686
3216.76061,2.02884
3215.73091,2.03074
3214.70122,2.03150
3213.67153,2.03068
3212.64183,2.02828
3211.61214,2.02625
3210.58245,2.02685
3209.55276,2.02877
3208.52306,2.02902
3207.49337,2.02832
3206.46368,2.02828
3205.43398,2.02764
3204.40429,2.02671
3203.37460,2.02680
3202.34491,2.02765
3201.31521,2.02749
3200.28552,2.02632
3199.25583,2.02723
3198.22613,2.02831
3197.19644,2.02707
3196.16675,2.02666
3195.13706,2.02809
3194.10736,2.02837
3193.07767,2.02625
3192.04798,2.02493
3191.01828,2.02551
3189.98859,2.02524
3188.95890,2.02495
3187.92920,2.02516
3186.89951,2.02415
3185.86982,2.02534
3184.84013,2.02868
3183.81043,2.02800
3182.78074,2.02457
3181.75105,2.02384
3180.72135,2.02623
3179.69166,2.02878
3178.66197,2.02977
3177.63228,2.02960
3176.60258,2.02871
3175.57289,2.02681
3174.54320,2.02527
3173.51350,2.02448
3172.48381,2.02343
3171.45412,2.02289
3170.42443,2.02337
3169.39473,2.02454
3168.36504,2.02534
3167.33535,2.02548
3166.30565,2.02443
3165.27596,2.02289
3164.24627,2.02425
3163.21658,2.02689
3162.18688,2.02660
3161.15719,2.02525
3160.12750,2.02554
3159.09780,2.02491
3158.06811,2.02289
3157.03842,2.02312
3156.00873,2.02539
3154.97903,2.02792
3153.94934,2.03121
3152.91965,2.03210
3151.88995,2.02783
3150.86026,2.02317
3149.83057,2.02174
3148.80087,2.02191
3147.77118,2.02183
3146.74149,2.02221
3145.71180,2.02204
3144.68210,2.01984
3143.65241,2.01970
3142.62272,2.02238
3141.59302,2.02334
3140.56333,2.02316
3139.53364,2.02441
3138.50395,2.02500
3137.47425,2.02383
3136.44456,2.02352
3135.41487,2.02585
3134.38517,2.02979
3133.35548,2.03210
3132.32579,2.02935
3131.29610,2.02388
3130.26640,2.02197
3129.23671,2.02331
3128.20702,2.02497
3127.17732,2.02658
3126.14763,2.02846
3125.11794,2.03069
3124.08825,2.03131
3123.05855,2.02931
3122.02886,2.02644
3120.99917,2.02477
3119.96947,2.02386
3118.93978,2.02319
3117.91009,2.02378
3116.88040,2.02498
3115.85070,2.02584
3114.82101,2.02763
3113.79132,2.02916
3112.76162,2.02748
3111.73193,2.02417
3110.70224,2.02273
3109.67254,2.02410
3108.64285,2.02553
3107.61316,2.02492
3106.58347,2.02410
3105.55377,2.02474
3104.52408,2.02648
3103.49439,2.02825
3102.46469,2.02878
3101.43500,2.02754
3100.40531,2.02609
3099.37562,2.02476
3098.34592,2.02386
3097.31623,2.02498
3096.28654,2.02640
3095.25684,2.02630
3094.22715,2.02540
3093.19746,2.02493
3092.16777,2.02538
3091.13807,2.02626
3090.10838,2.02669
3089.07869,2.02575
3088.04899,2.02340
3087.01930,2.02228
3085.98961,2.02284
3084.95992,2.02214
3083.93022,2.02290
3082.90053,2.02620
3081.87084,2.02749
3080.84114,2.02596
3079.81145,2.02377
3078.78176,2.02357
3077.75207,2.02544
3076.72237,2.02701
3075.69268,2.02690
3074.66299,2.02628
3073.63329,2.02704
3072.60360,2.02820
3071.57391,2.02801
3070.54421,2.02666
3069.51452,2.02605
3068.48483,2.02720
3067.45514,2.02851
3066.42544,2.02871
3065.39575,2.02828
3064.36606,2.02809
3063.33636,2.02996
3062.30667,2.03283
3061.27698,2.03263
3060.24729,2.03002
3059.21759,2.02925
3058.18790,2.03099
3057.15821,2.03154
3056.12851,2.02941
3055.09882,2.02762
3054.06913,2.02771
3053.03944,2.02839
3052.00974,2.02891
3050.98005,2.02974
3049.95036,2.02999
3048.92066,2.02775
3047.89097,2.02488
3046.86128,2.02445
3045.83159,2.02723
3044.80189,2.03072
3043.77220,2.02970
3042.74251,2.02644
3041.71281,2.02622
3040.68312,2.02754
3039.65343,2.02839
3038.62374,2.02832
3037.59404,2.02750
3036.56435,2.02697
3035.53466,2.02732
3034.50496,2.02886
3033.47527,2.02998
3032.44558,2.02894
3031.41588,2.02789
3030.38619,2.02866
3029.35650,2.02853
3028.32681,2.02671
3027.29711,2.02647
3026.26742,2.02889
3025.23773,2.03186
3024.20803,2.03328
3023.17834,2.03227
3022.14865,2.03087
3021.11896,2.03105
3020.08926,2.03086
3019.05957,2.02930
3018.02988,2.02907
3017.00018,2.03059
3015.97049,2.03055
3014.94080,2.03032
3013.91111,2.03350
3012.88141,2.03616
3011.85172,2.03498
3010.82203,2.03220
3009.79233,2.03022
3008.76264,2.03111
3007.73295,2.03271
3006.70326,2.03230
3005.67356,2.03164
3004.64387,2.03242
3003.61418,2.03390
3002.58448,2.03457
3001.55479,2.03585
3000.52510,2.03942
2999.49541,2.04181
2998.46571,2.04054
2997.43602,2.03841
2996.40633,2.03748
2995.37663,2.03681
2994.34694,2.03470
2993.31725,2.03239
2992.28755,2.03296
2991.25786,2.03464
2990.22817,2.03333
2989.19848,2.03103
2988.16878,2.03036
2987.13909,2.02931
2986.10940,2.02913
2985.07970,2.03156
2984.05001,2.03208
2983.02032,2.02862
2981.99063,2.02693
2980.96093,2.02902
2979.93124,2.03023
2978.90155,2.02859
2977.87185,2.02630
2976.84216,2.02591
2975.81247,2.02647
2974.78278,2.02525
2973.75308,2.02311
2972.72339,2.02273
2971.69370,2.02210
2970.66400,2.01890
2969.63431,2.01651
2968.60462,2.01712
2967.57493,2.01846
2966.54523,2.01725
2965.51554,2.01413
2964.48585,2.01255
2963.45615,2.01229
2962.42646,2.01104
2961.39677,2.00996
2960.36707,2.01083
2959.33738,2.01075
2958.30769,2.00755
2957.27800,2.00510
2956.24830,2.00557
2955.21861,2.00488
2954.18892,2.00249
2953.15922,2.00251
2952.12953,2.00382
2951.09984,2.00308
2950.07015,2.00185
2949.04045,2.00147
2948.01076,2.00076
2946.98107,2.00067
2945.95137,2.00136
2944.92168,2.00081
2943.89199,1.99822
2942.86230,1.99630
2941.83260,1.99735
2940.80291,1.99836
2939.77322,1.99734
2938.74352,1.99661
2937.71383,1.99692
2936.68414,1.99601
2935.65445,1.99407
2934.62475,1.99226
2933.59506,1.98978
2932.56537,1.98791
2931.53567,1.98768
2930.50598,1.98729
2929.47629,1.98514
2928.44660,1.98207
2927.41690,1.98000
2926.38721,1.97903
2925.35752,1.97836
2924.32782,1.97759
2923.29813,1.97737
2922.26844,1.97822
2921.23874,1.97890
2920.20905,1.97807
2919.17936,1.97768
2918.14967,1.97931
2917.11997,1.97963
2916.09028,1.97763
2915.06059,1.97575
2914.03089,1.97451
2913.00120,1.97462
2911.97151,1.97726
2910.94182,1.97952
2909.91212,1.97854
2908.88243,1.97674
2907.85274,1.97604
2906.82304,1.97652
2905.79335,1.97799
2904.76366,1.97926
2903.73397,1.98006
2902.70427,1.98089
2901.67458,1.98187
2900.64489,1.98315
2899.61519,1.98375
2898.58550,1.98279
2897.55581,1.98231
2896.52612,1.98233
2895.49642,1.98184
2894.46673,1.98277
2893.43704,1.98434
2892.40734,1.98431
2891.37765,1.98457
2890.34796,1.98598
2889.31827,1.98652
2888.28857,1.98617
2887.25888,1.98566
2886.22919,1.98555
2885.19949,1.98713
2884.16980,1.98896
2883.14011,1.98806
2882.11041,1.98597
2881.08072,1.98501
2880.05103,1.98462
2879.02134,1.98509
2877.99164,1.98618
2876.96195,1.98672
2875.93226,1.98688
2874.90256,1.98601
2873.87287,1.98377
2872.84318,1.98290
2871.81349,1.98447
2870.78379,1.98624
2869.75410,1.98667
2868.72441,1.98514
2867.69471,1.98307
2866.66502,1.98269
2865.63533,1.98240
2864.60564,1.98141
2863.57594,1.98187
2862.54625,1.98280
2861.51656,1.98348
2860.48686,1.98443
2859.45717,1.98416
2858.42748,1.98239
2857.39779,1.98107
2856.36809,1.98117
2855.33840,1.98134
2854.30871,1.98136
2853.27901,1.98179
2852.24932,1.98197
2851.21963,1.98169
2850.18994,1.98083
2849.16024,1.97994
2848.13055,1.97953
2847.10086,1.97885
2846.07116,1.97907
2845.04147,1.98119
2844.01178,1.98217
2842.98208,1.98078
2841.95239,1.97948
2840.92270,1.97914
2839.89301,1.97945
2838.86331,1.98069
2837.83362,1.98251
2836.80393,1.98393
2835.77423,1.98477
2834.74454,1.98526
2833.71485,1.98621
2832.68516,1.98859
2831.65546,1.99106
2830.62577,1.99174
2829.59608,1.99049
2828.56638,1.98864
2827.53669,1.98916
2826.50700,1.99261
2825.47731,1.99532
2824.44761,1.99487
2823.41792,1.99241
2822.38823,1.99021
2821.35853,1.98971
2820.32884,1.99050
2819.29915,1.99080
2818.26946,1.99109
2817.23976,1.99330
2816.21007,1.99566
2815.18038,1.99563
2814.15068,1.99492
2813.12099,1.99392
2812.09130,1.99191
2811.06161,1.99287
2810.03191,1.99691
2809.00222,1.99883
2807.97253,1.99806
2806.94283,1.99608
2805.91314,1.99423
2804.88345,1.99488
2803.85375,1.99707
2802.82406,1.99935
2801.79437,2.00101
2800.76468,2.00013
2799.73498,1.99860
2798.70529,1.99895
2797.67560,1.99935
2796.64590,1.99844
2795.61621,1.99801
2794.58652,1.99920
2793.55683,2.00066
2792.52713,2.00119
2791.49744,2.00098
2790.46775,2.00088
2789.43805,2.00148
2788.40836,2.00179
2787.37867,2.00122
2786.34898,2.00096
2785.31928,2.00065
2784.28959,2.00018
2783.25990,2.00102
2782.23020,2.00164
2781.20051,2.00071
2780.17082,2.00089
2779.14113,2.00247
2778.11143,2.00261
2777.08174,2.00125
2776.05205,2.00058
2775.02235,2.00126
2773.99266,2.00268
2772.96297,2.00377
2771.93328,2.00340
2770.90358,2.00276
2769.87389,2.00266
2768.84420,2.00190
2767.81450,2.00161
2766.78481,2.00326
2765.75512,2.00478
2764.72542,2.00480
2763.69573,2.00484
2762.66604,2.00546
2761.63635,2.00542
2760.60665,2.00414
2759.57696,2.00255
2758.54727,2.00155
2757.51757,2.00145
2756.48788,2.00225
2755.45819,2.00302
2754.42850,2.00313
2753.39880,2.00388
2752.36911,2.00504
2751.33942,2.00457
2750.30972,2.00346
2749.28003,2.00372
2748.25034,2.00508
2747.22065,2.00552
2746.19095,2.00362
2745.16126,2.00193
2744.13157,2.00333
2743.10187,2.00607
2742.07218,2.00752
2741.04249,2.00773
2740.01280,2.00772
2738.98310,2.00835
2737.95341,2.00870
2736.92372,2.00806
2735.89402,2.00783
2734.86433,2.00776
2733.83464,2.00736
2732.80495,2.00709
2731.77525,2.00663
2730.74556,2.00633
2729.71587,2.00644
2728.68617,2.00669
2727.65648,2.00677
2726.62679,2.00722
2725.59709,2.00795
2724.56740,2.00710
2723.53771,2.00593
2722.50802,2.00662
2721.47832,2.00724
2720.44863,2.00664
2719.41894,2.00697
2718.38924,2.00863
2717.35955,2.00962
2716.32986,2.00901
2715.30017,2.00772
2714.27047,2.00629
2713.24078,2.00551
2712.21109,2.00714
2711.18139,2.00893
2710.15170,2.00773
2709.12201,2.00645
2708.09232,2.00742
2707.06262,2.00753
2706.03293,2.00585
2705.00324,2.00597
2703.97354,2.00811
2702.94385,2.00922
2701.91416,2.00926
2700.88447,2.00925
2699.85477,2.00841
2698.82508,2.00748
2697.79539,2.00817
2696.76569,2.00998
2695.73600,2.01164
2694.70631,2.01174
2693.67662,2.01029
2692.64692,2.00969
2691.61723,2.00995
2690.58754,2.00997
2689.55784,2.00949
2688.52815,2.00769
2687.49846,2.00643
2686.46876,2.00718
2685.43907,2.00826
2684.40938,2.00816
2683.37969,2.00695
2682.34999,2.00670
2681.32030,2.00785
2680.29061,2.00882
2679.26091,2.00979
2678.23122,2.01035
2677.20153,2.00959
2676.17184,2.00912
2675.14214,2.00978
2674.11245,2.00985
2673.08276,2.00948
2672.05306,2.00966
2671.02337,2.00971
2669.99368,2.01091
2668.96399,2.01367
2667.93429,2.01513
2666.90460,2.01442
2665.87491,2.01368
2664.84521,2.01418
2663.81552,2.01451
2662.78583,2.01328
2661.75614,2.01192
2660.72644,2.01183
2659.69675,2.01252
2658.66706,2.01328
2657.63736,2.01324
2656.60767,2.01229
2655.57798,2.01213
2654.54828,2.01336
2653.51859,2.01399
2652.48890,2.01339
2651.45921,2.01335
2650.42951,2.01404
2649.39982,2.01319
2648.37013,2.01115
2647.34043,2.01124
2646.31074,2.01311
2645.28105,2.01398
2644.25136,2.01415
2643.22166,2.01403
2642.19197,2.01320
2641.16228,2.01295
2640.13258,2.01297
2639.10289,2.01230
2638.07320,2.01167
2637.04351,2.01258
2636.01381,2.01494
2634.98412,2.01545
2633.95443,2.01496
2632.92473,2.01651
2631.89504,2.01839
2630.86535,2.01879
2629.83566,2.01739
2628.80596,2.01464
2627.77627,2.01244
2626.74658,2.01140
2625.71688,2.01105
2624.68719,2.01186
2623.65750,2.01388
2622.62781,2.01603
2621.59811,2.01639
2620.56842,2.01548
2619.53873,2.01454
2618.50903,2.01194
2617.47934,2.00939
2616.44965,2.00977
2615.41995,2.01233
2614.39026,2.01516
2613.36057,2.01631
2612.33088,2.01576
2611.30118,2.01569
2610.27149,2.01664
2609.24180,2.01630
2608.21210,2.01410
2607.18241,2.01288
2606.15272,2.01418
2605.12303,2.01581
2604.09333,2.01472
2603.06364,2.01223
2602.03395,2.01159
2601.00425,2.01206
2599.97456,2.01252
2598.94487,2.01400
2597.91518,2.01582
2596.88548,2.01576
2595.85579,2.01485
2594.82610,2.01538
2593.79640,2.01512
2592.76671,2.01305
2591.73702,2.01149
2590.70733,2.01082
2589.67763,2.01149
2588.64794,2.01374
2587.61825,2.01534
2586.58855,2.01491
2585.55886,2.01486
2584.52917,2.01685
2583.49948,2.01812
2582.46978,2.01682
2581.44009,2.01464
2580.41040,2.01350
2579.38070,2.01362
2578.35101,2.01422
2577.32132,2.01442
2576.29162,2.01415
2575.26193,2.01407
2574.23224,2.01428
2573.20255,2.01423
2572.17285,2.01400
2571.14316,2.01503
2570.11347,2.01673
2569.08377,2.01646
2568.05408,2.01484
2567.02439,2.01436
2565.99470,2.01499
2564.96500,2.01571
2563.93531,2.01614
2562.90562,2.01564
2561.87592,2.01483
2560.84623,2.01482
2559.81654,2.01520
2558.78685,2.01568
2557.75715,2.01630
2556.72746,2.01730
2555.69777,2.01835
2554.66807,2.01735
2553.63838,2.01447
2552.60869,2.01345
2551.57900,2.01459
2550.54930,2.01449
2549.51961,2.01404
2548.48992,2.01485
2547.46022,2.01502
2546.43053,2.01480
2545.40084,2.01548
2544.37115,2.01580
2543.34145,2.01561
2542.31176,2.01605
2541.28207,2.01710
2540.25237,2.01862
2539.22268,2.01975
2538.19299,2.01968
2537.16329,2.01915
2536.13360,2.01928
2535.10391,2.01977
2534.07422,2.01975
2533.04452,2.01848
2532.01483,2.01572
2530.98514,2.01404
2529.95544,2.01419
2528.92575,2.01445
2527.89606,2.01545
2526.86637,2.01728
2525.83667,2.01843
2524.80698,2.01894
2523.77729,2.01936
2522.74759,2.01937
2521.71790,2.01947
2520.68821,2.01964
2519.65852,2.01845
2518.62882,2.01647
2517.59913,2.01558
2516.56944,2.01569
2515.53974,2.01612
2514.51005,2.01760
2513.48036,2.01986
2512.45067,2.01958
2511.42097,2.01721
2510.39128,2.01721
2509.36159,2.01905
2508.33189,2.01942
2507.30220,2.01925
2506.27251,2.01976
2505.24282,2.01926
2504.21312,2.01816
2503.18343,2.01801
2502.15374,2.01879
2501.12404,2.02019
2500.09435,2.02120
2499.06466,2.02055
2498.03496,2.01859
2497.00527,2.01744
2495.97558,2.01706
2494.94589,2.01669
2493.91619,2.01715
2492.88650,2.01780
2491.85681,2.01769
2490.82711,2.01685
2489.79742,2.01650
2488.76773,2.01754
2487.73804,2.01840
2486.70834,2.01856
2485.67865,2.01926
2484.64896,2.01984
2483.61926,2.01875
2482.58957,2.01720
2481.55988,2.01715
2480.53019,2.01806
2479.50049,2.01922
2478.47080,2.01981
2477.44111,2.01874
2476.41141,2.01705
2475.38172,2.01540
2474.35203,2.01366
2473.32234,2.01348
2472.29264,2.01569
2471.26295,2.01772
2470.23326,2.01798
2469.20356,2.01749
2468.17387,2.01729
2467.14418,2.01774
2466.11449,2.01739
2465.08479,2.01608
2464.05510,2.01580
2463.02541,2.01589
2461.99571,2.01535
2460.96602,2.01554
2459.93633,2.01675
2458.90663,2.01745
2457.87694,2.01695
2456.84725,2.01622
2455.81756,2.01551
2454.78786,2.01489
2453.75817,2.01592
2452.72848,2.01782
2451.69878,2.01746
2450.66909,2.01523
2449.63940,2.01406
2448.60971,2.01572
2447.58001,2.01832
2446.55032,2.01832
2445.52063,2.01673
2444.49093,2.01603
2443.46124,2.01657
2442.43155,2.01805
2441.40186,2.01858
2440.37216,2.01656
2439.34247,2.01374
2438.31278,2.01316
2437.28308,2.01501
2436.25339,2.01629
2435.22370,2.01589
2434.19401,2.01612
2433.16431,2.01721
2432.13462,2.01708
2431.10493,2.01594
2430.07523,2.01527
2429.04554,2.01574
2428.01585,2.01726
2426.98616,2.01772
2425.95646,2.01674
2424.92677,2.01725
2423.89708,2.01839
2422.86738,2.01767
2421.83769,2.01652
2420.80800,2.01544
2419.77830,2.01360
2418.74861,2.01317
2417.71892,2.01520
2416.68923,2.01589
2415.65953,2.01422
2414.62984,2.01400
2413.60015,2.01646
2412.57045,2.01914
2411.54076,2.01947
2410.51107,2.01811
2409.48138,2.01678
2408.45168,2.01633
2407.42199,2.01720
2406.39230,2.01765
2405.36260,2.01742
2404.33291,2.01829
2403.30322,2.01909
2402.27353,2.01782
2401.24383,2.01559
2400.21414,2.01448
2399.18445,2.01427
2398.15475,2.01382
2397.12506,2.01340
2396.09537,2.01422
2395.06568,2.01629
2394.03598,2.01780
2393.00629,2.01691
2391.97660,2.01485
2390.94690,2.01471
2389.91721,2.01627
2388.88752,2.01707
2387.85782,2.01666
2386.82813,2.01596
2385.79844,2.01543
2384.76875,2.01579
2383.73905,2.01816
2382.70936,2.02102
2381.67967,2.02170
2380.64997,2.02211
2379.62028,2.02381
2378.59059,2.02432
2377.56090,2.02395
2376.53120,2.02456
2375.50151,2.02587
2374.47182,2.02794
2373.44212,2.03023
2372.41243,2.03087
2371.38274,2.03028
2370.35305,2.03093
2369.32335,2.03177
2368.29366,2.03032
2367.26397,2.02893
2366.23427,2.02916
2365.20458,2.02972
2364.17489,2.03228
2363.14520,2.03686
2362.11550,2.03564
2361.08581,2.02839
2360.05612,2.02677
2359.02642,2.03155
2357.99673,2.03361
2356.96704,2.03123
2355.93735,2.02920
2354.90765,2.02794
2353.87796,2.02479
2352.84827,2.02304
2351.81857,2.02371
2350.78888,2.02157
2349.75919,2.01953
2348.72949,2.02338
2347.69980,2.02940
2346.67011,2.03240
2345.64042,2.03297
2344.61072,2.03281
2343.58103,2.03187
2342.55134,2.03013
2341.52164,2.02938
2340.49195,2.03042
2339.46226,2.03079
2338.43257,2.02869
2337.40287,2.02652
2336.37318,2.02503
2335.34349,2.02457
2334.31379,2.02605
2333.28410,2.02699
2332.25441,2.02752
2331.22472,2.02776
2330.19502,2.02588
2329.16533,2.02519
2328.13564,2.02697
2327.10594,2.02681
2326.07625,2.02554
2325.04656,2.02536
2324.01687,2.02439
2322.98717,2.02343
2321.95748,2.02331
2320.92779,2.02239
2319.89809,2.02152
2318.86840,2.02143
2317.83871,2.02107
2316.80902,2.02065
2315.77932,2.02022
2314.74963,2.01921
2313.71994,2.01710
2312.69024,2.01578
2311.66055,2.01697
2310.63086,2.01891
2309.60116,2.01979
2308.57147,2.01977
2307.54178,2.01938
2306.51209,2.01803
2305.48239,2.01714
2304.45270,2.01829
2303.42301,2.01902
2302.39331,2.01758
2301.36362,2.01717
2300.33393,2.01900
2299.30424,2.01983
2298.27454,2.01960
2297.24485,2.01934
2296.21516,2.01792
2295.18546,2.01624
2294.15577,2.01690
2293.12608,2.01935
2292.09639,2.02098
2291.06669,2.02081
2290.03700,2.01995
2289.00731,2.01966
2287.97761,2.01902
2286.94792,2.01810
2285.91823,2.01841
2284.88854,2.01959
2283.85884,2.02061
2282.82915,2.02060
2281.79946,2.01926
2280.76976,2.01868
2279.74007,2.01999
2278.71038,2.02104
2277.68069,2.02102
2276.65099,2.02094
2275.62130,2.02078
2274.59161,2.02044
2273.56191,2.02019
2272.53222,2.02025
2271.50253,2.02093
2270.47283,2.02190
2269.44314,2.02229
2268.41345,2.02091
2267.38376,2.01813
2266.35406,2.01716
2265.32437,2.01910
2264.29468,2.02116
2263.26498,2.02119
2262.23529,2.02033
2261.20560,2.02062
2260.17591,2.02145
2259.14621,2.02166
2258.11652,2.02195
2257.08683,2.02227
2256.05713,2.02191
2255.02744,2.02178
2253.99775,2.02187
2252.96806,2.02154
2251.93836,2.02159
2250.90867,2.02210
2249.87898,2.02242
2248.84928,2.02172
2247.81959,2.02024
2246.78990,2.02060
2245.76021,2.02246
2244.73051,2.02281
2243.70082,2.02284
2242.67113,2.02388
2241.64143,2.02348
2240.61174,2.02196
2239.58205,2.02119
2238.55236,2.01963
2237.52266,2.01808
2236.49297,2.01915
2235.46328,2.02055
2234.43358,2.02056
2233.40389,2.02202
2232.37420,2.02563
2231.34450,2.02727
2230.31481,2.02489
2229.28512,2.02254
2228.25543,2.02267
2227.22573,2.02319
2226.19604,2.02262
2225.16635,2.02238
2224.13665,2.02343
2223.10696,2.02394
2222.07727,2.02346
2221.04758,2.02353
2220.01788,2.02386
2218.98819,2.02316
2217.95850,2.02220
2216.92880,2.02227
2215.89911,2.02370
2214.86942,2.02610
2213.83973,2.02745
2212.81003,2.02633
2211.78034,2.02466
2210.75065,2.02455
2209.72095,2.02531
2208.69126,2.02566
2207.66157,2.02614
2206.63188,2.02767
2205.60218,2.02846
2204.57249,2.02667
2203.54280,2.02428
2202.51310,2.02310
2201.48341,2.02323
2200.45372,2.02407
2199.42403,2.02435
2198.39433,2.02394
2197.36464,2.02351
2196.33495,2.02399
2195.30525,2.02577
2194.27556,2.02731
2193.24587,2.02732
2192.21617,2.02620
2191.18648,2.02581
2190.15679,2.02754
2189.12710,2.02899
2188.09740,2.02794
2187.06771,2.02618
2186.03802,2.02529
2185.00832,2.02527
2183.97863,2.02626
2182.94894,2.02725
2181.91925,2.02704
2180.88955,2.02619
2179.85986,2.02563
2178.83017,2.02564
2177.80047,2.02588
2176.77078,2.02558
2175.74109,2.02544
2174.71140,2.02563
2173.68170,2.02518
2172.65201,2.02427
2171.62232,2.02377
2170.59262,2.02421
2169.56293,2.02537
2168.53324,2.02681
2167.50355,2.02815
2166.47385,2.02831
2165.44416,2.02567
2164.41447,2.02242
2163.38477,2.02261
2162.35508,2.02454
2161.32539,2.02521
2160.29570,2.02531
2159.26600,2.02587
2158.23631,2.02762
2157.20662,2.03025
2156.17692,2.03169
2155.14723,2.03101
2154.11754,2.02940
2153.08784,2.02857
2152.05815,2.02952
2151.02846,2.03109
2149.99877,2.03156
2148.96907,2.03139
2147.93938,2.03095
2146.90969,2.02988
2145.87999,2.02913
2144.85030,2.02911
2143.82061,2.02965
2142.79092,2.03061
2141.76122,2.03116
2140.73153,2.03089
2139.70184,2.03056
2138.67214,2.03112
2137.64245,2.03212
2136.61276,2.03258
2135.58307,2.03274
2134.55337,2.03299
2133.52368,2.03194
2132.49399,2.02981
2131.46429,2.02933
2130.43460,2.02964
2129.40491,2.02888
2128.37522,2.02813
2127.34552,2.02885
2126.31583,2.03145
2125.28614,2.03372
2124.25644,2.03369
2123.22675,2.03229
2122.19706,2.03101
2121.16737,2.03035
2120.13767,2.03027
2119.10798,2.03117
2118.07829,2.03226
2117.04859,2.03241
2116.01890,2.03235
2114.98921,2.03242
2113.95951,2.03227
2112.92982,2.03167
2111.90013,2.03121
2110.87044,2.03161
2109.84074,2.03218
2108.81105,2.03159
2107.78136,2.02948
2106.75166,2.02885
2105.72197,2.03068
2104.69228,2.03133
2103.66259,2.03058
2102.63289,2.02997
2101.60320,2.02978
2100.57351,2.03149
2099.54381,2.03363
2098.51412,2.03247
2097.48443,2.02977
2096.45474,2.02864
2095.42504,2.02902
2094.39535,2.03044
2093.36566,2.03141
2092.33596,2.03129
2091.30627,2.03119
2090.27658,2.03102
2089.24689,2.03085
2088.21719,2.03092
2087.18750,2.03101
2086.15781,2.03256
2085.12811,2.03404
2084.09842,2.03193
2083.06873,2.02887
2082.03903,2.02825
2081.00934,2.02910
2079.97965,2.02985
2078.94996,2.03077
2077.92026,2.03176
2076.89057,2.03210
2075.86088,2.03238
2074.83118,2.03281
2073.80149,2.03306
2072.77180,2.03362
2071.74211,2.03416
2070.71241,2.03399
2069.68272,2.03412
2068.65303,2.03392
2067.62333,2.03296
2066.59364,2.03382
2065.56395,2.03533
2064.53426,2.03415
2063.50456,2.03304
2062.47487,2.03412
2061.44518,2.03476
2060.41548,2.03442
2059.38579,2.03410
2058.35610,2.03394
2057.32641,2.03444
2056.29671,2.03612
2055.26702,2.03768
2054.23733,2.03744
2053.20763,2.03599
2052.17794,2.03482
2051.14825,2.03451
2050.11856,2.03471
2049.08886,2.03454
2048.05917,2.03409
2047.02948,2.03507
2045.99978,2.03698
2044.97009,2.03689
2043.94040,2.03549
2042.91070,2.03701
2041.88101,2.04064
2040.85132,2.04136
2039.82163,2.03917
2038.79193,2.03739
2037.76224,2.03691
2036.73255,2.03637
2035.70285,2.03545
2034.67316,2.03506
2033.64347,2.03583
2032.61378,2.03758
2031.58408,2.03897
2030.55439,2.03970
2029.52470,2.04038
2028.49500,2.04053
2027.46531,2.03975
2026.43562,2.03921
2025.40593,2.03987
2024.37623,2.04098
2023.34654,2.04188
2022.31685,2.04186
2021.28715,2.04014
2020.25746,2.03820
2019.22777,2.03833
2018.19808,2.04013
2017.16838,2.04034
2016.13869,2.03870
2015.10900,2.03921
2014.07930,2.04158
2013.04961,2.04281
2012.01992,2.04282
2010.99023,2.04228
2009.96053,2.04163
2008.93084,2.04222
2007.90115,2.04340
2006.87145,2.04353
2005.84176,2.04306
2004.81207,2.04188
2003.78237,2.04051
2002.75268,2.04139
2001.72299,2.04411
2000.69330,2.04538
1999.66360,2.04408
1998.63391,2.04204
1997.60422,2.04245
1996.57452,2.04524
1995.54483,2.04616
1994.51514,2.04547
1993.48545,2.04677
1992.45575,2.04693
1991.42606,2.04338
1990.39637,2.04274
1989.36667,2.04546
1988.33698,2.04580
1987.30729,2.04508
1986.27760,2.04621
1985.24790,2.04654
1984.21821,2.04578
1983.18852,2.04587
1982.15882,2.04650
1981.12913,2.04706
1980.09944,2.04720
1979.06975,2.04680
1978.04005,2.04697
1977.01036,2.04810
1975.98067,2.04875
1974.95097,2.04844
1973.92128,2.04799
1972.89159,2.04901
1971.86190,2.05179
1970.83220,2.05351
1969.80251,2.05381
1968.77282,2.05431
1967.74312,2.05238
1966.71343,2.04859
1965.68374,2.04868
1964.65404,2.05084
1963.62435,2.05146
1962.59466,2.05151
1961.56497,2.05126
1960.53527,2.05039
1959.50558,2.05045
1958.47589,2.05260
1957.44619,2.05557
1956.41650,2.05673
1955.38681,2.05603
1954.35712,2.05535
1953.32742,2.05500
1952.29773,2.05437
1951.26804,2.05362
1950.23834,2.05360
1949.20865,2.05342
1948.17896,2.05373
1947.14927,2.05621
1946.11957,2.05778
1945.08988,2.05741
1944.06019,2.05807
1943.03049,2.05609
1942.00080,2.04919
1940.97111,2.04822
1939.94142,2.05369
1938.91172,2.05771
1937.88203,2.05942
1936.85234,2.05973
1935.82264,2.05917
1934.79295,2.05980
1933.76326,2.06120
1932.73357,2.06121
1931.70387,2.05909
1930.67418,2.05696
1929.64449,2.05667
1928.61479,2.05712
1927.58510,2.05713
1926.55541,2.05762
1925.52571,2.06034
1924.49602,2.06503
1923.46633,2.06633
1922.43664,2.06110
1921.40694,2.05705
1920.37725,2.05874
1919.34756,2.06359
1918.31786,2.06419
1917.28817,2.05877
1916.25848,2.05903
1915.22879,2.06289
1914.19909,2.06334
1913.16940,2.06278
1912.13971,2.06414
1911.11001,2.06572
1910.08032,2.06398
1909.05063,2.06119
1908.02094,2.06126
1906.99124,2.06215
1905.96155,2.06328
1904.93186,2.06499
1903.90216,2.06541
1902.87247,2.06505
1901.84278,2.06594
1900.81309,2.06706
1899.78339,2.06645
1898.75370,2.06552
1897.72401,2.06675
1896.69431,2.06925
1895.66462,2.06923
1894.63493,2.06635
1893.60524,2.06704
1892.57554,2.07181
1891.54585,2.07649
1890.51616,2.07869
1889.48646,2.07316
1888.45677,2.06634
1887.42708,2.06841
1886.39738,2.07374
1885.36769,2.07573
1884.33800,2.07473
1883.30831,2.07465
1882.27861,2.07594
1881.24892,2.07637
1880.21923,2.07547
1879.18953,2.07492
1878.15984,2.07697
1877.13015,2.08000
1876.10046,2.08107
1875.07076,2.08068
1874.04107,2.08016
1873.01138,2.08008
1871.98168,2.08173
1870.95199,2.08570
1869.92230,2.08813
1868.89261,2.08424
1867.86291,2.07895
1866.83322,2.07612
1865.80353,2.07599
1864.77383,2.07955
1863.74414,2.08253
1862.71445,2.08301
1861.68476,2.08303
1860.65506,2.08241
1859.62537,2.08229
1858.59568,2.08308
1857.56598,2.08328
1856.53629,2.08407
1855.50660,2.08586
1854.47691,2.08747
1853.44721,2.08838
1852.41752,2.08975
1851.38783,2.09200
1850.35813,2.09331
1849.32844,2.09433
1848.29875,2.09458
1847.26905,2.09233
1846.23936,2.09513
1845.20967,2.10159
1844.17998,2.09209
1843.15028,2.07971
1842.12059,2.08310
1841.09090,2.08881
1840.06120,2.09471
1839.03151,2.10263
1838.00182,2.10741
1836.97213,2.10492
1835.94243,2.10092
1834.91274,2.10168
1833.88305,2.10320
1832.85335,2.10337
1831.82366,2.10841
1830.79397,2.11710
1829.76428,2.11297
1828.73458,2.10121
1827.70489,2.10246
1826.67520,2.11175
1825.64550,2.11525
1824.61581,2.10804
1823.58612,2.10781
1822.55643,2.11202
1821.52673,2.11348
1820.49704,2.11646
1819.46735,2.12046
1818.43765,2.12299
1817.40796,2.12302
1816.37827,2.12231
1815.34858,2.12416
1814.31888,2.12770
1813.28919,2.13055
1812.25950,2.13271
1811.22980,2.13267
1810.20011,2.12923
1809.17042,2.12958
1808.14072,2.13384
1807.11103,2.13557
1806.08134,2.13691
1805.05165,2.14116
1804.02195,2.14747
1802.99226,2.15282
1801.96257,2.15314
1800.93287,2.15263
1799.90318,2.15192
1798.87349,2.15034
1797.84380,2.15563
1796.81410,2.16253
1795.78441,2.16108
1794.75472,2.16179
1793.72502,2.17267
1792.69533,2.17493
1791.66564,2.16036
1790.63595,2.15385
1789.60625,2.15682
1788.57656,2.16199
1787.54687,2.16702
1786.51717,2.17348
1785.48748,2.17727
1784.45779,2.17320
1783.42810,2.17298
1782.39840,2.18104
1781.36871,2.18623
1780.33902,2.17995
1779.30932,2.17304
1778.27963,2.17513
1777.24994,2.18316
1776.22024,2.18944
1775.19055,2.18876
1774.16086,2.19196
1773.13117,2.19682
1772.10147,2.18307
1771.07178,2.17007
1770.04209,2.17747
1769.01239,2.18904
1767.98270,2.18803
1766.95301,2.18341
1765.92332,2.18736
1764.89362,2.19146
1763.86393,2.19684
1762.83424,2.20450
1761.80454,2.19972
1760.77485,2.18877
1759.74516,2.19255
1758.71547,2.20215
1757.68577,2.20479
1756.65608,2.19640
1755.62639,2.19247
1754.59669,2.19995
1753.56700,2.21127
1752.53731,2.22384
1751.50762,2.22401
1750.47792,2.21174
1749.44823,2.21475
1748.41854,2.21821
1747.38884,2.21283
1746.35915,2.21279
1745.32946,2.21720
1744.29977,2.22031
1743.27007,2.21772
1742.24038,2.21562
1741.21069,2.22322
1740.18099,2.22554
1739.15130,2.21062
1738.12161,2.20634
1737.09191,2.21541
1736.06222,2.23067
1735.03253,2.24350
1734.00284,2.21688
1732.97314,2.18679
1731.94345,2.19743
1730.91376,2.21290
1729.88406,2.21034
1728.85437,2.20085
1727.82468,2.20147
1726.79499,2.20399
1725.76529,2.20574
1724.73560,2.20762
1723.70591,2.20294
1722.67621,2.19404
1721.64652,2.19247
1720.61683,2.20036
1719.58714,2.21506
1718.55744,2.22165
1717.52775,2.19121
1716.49806,2.17332
1715.46836,2.17710
1714.43867,2.16789
1713.40898,2.15568
1712.37929,2.15787
1711.34959,2.16501
1710.31990,2.16491
1709.29021,2.15855
1708.26051,2.16021
1707.23082,2.16662
1706.20113,2.16104
1705.17144,2.14828
1704.14174,2.14051
1703.11205,2.14456
1702.08236,2.16571
1701.05266,2.18774
1700.02297,2.14522
1698.99328,2.12034
1697.96358,2.14136
1696.93389,2.16491
1695.90420,2.15521
1694.87451,2.12656
1693.84481,2.13095
1692.81512,2.14550
1691.78543,2.15674
1690.75573,2.16289
1689.72604,2.16290
1688.69635,2.16054
1687.66666,2.16153
1686.63696,2.17371
1685.60727,2.19670
1684.57758,2.19565
1683.54788,2.14363
1682.51819,2.14118
1681.48850,2.15917
1680.45881,2.16778
1679.42911,2.16461
1678.39942,2.16551
1677.36973,2.17557
1676.34003,2.19131
1675.31034,2.18296
1674.28065,2.15700
1673.25096,2.16119
1672.22126,2.17196
1671.19157,2.17225
1670.16188,2.17121
1669.13218,2.15625
1668.10249,2.13549
1667.07280,2.13703
1666.04311,2.14405
1665.01341,2.14727
1663.98372,2.15001
1662.95403,2.14148
1661.92433,2.11980
1660.89464,2.11260
1659.86495,2.11585
1658.83525,2.11673
1657.80556,2.11257
1656.77587,2.10888
1655.74618,2.11551
1654.71648,2.13617
1653.68679,2.14888
1652.65710,2.07101
1651.62740,2.04461
1650.59771,2.05823
1649.56802,2.07445
1648.53833,2.08156
1647.50863,2.06949
1646.47894,2.04311
1645.44925,2.02342
1644.41955,2.02591
1643.38986,2.03575
1642.36017,2.03742
1641.33048,2.03308
1640.30078,2.03015
1639.27109,2.03095
1638.24140,2.03415
1637.21170,2.03698
1636.18201,2.03573
1635.15232,2.00665
1634.12263,1.98806
1633.09293,1.99536
1632.06324,2.00207
1631.03355,2.00173
1630.00385,2.00146
1628.97416,2.00412
1627.94447,1.99895
1626.91478,1.98655
1625.88508,1.98688
1624.85539,1.99943
1623.82570,2.00395
1622.79600,1.98434
1621.76631,1.97357
1620.73662,1.97667
1619.70692,1.98104
1618.67723,1.98907
1617.64754,1.99942
1616.61785,1.98111
1615.58815,1.95457
1614.55846,1.95682
1613.52877,1.96388
1612.49907,1.96688
1611.46938,1.96977
1610.43969,1.97243
1609.41000,1.97059
1608.38030,1.96723
1607.35061,1.96567
1606.32092,1.96475
1605.29122,1.96839
1604.26153,1.97437
1603.23184,1.97530
1602.20215,1.97332
1601.17245,1.97320
1600.14276,1.97482
1599.11307,1.97819
1598.08337,1.98246
1597.05368,1.98517
1596.02399,1.98580
1594.99430,1.98649
1593.96460,1.98742
1592.93491,1.98900
1591.90522,1.99159
1590.87552,1.99325
1589.84583,1.99412
1588.81614,1.99639
1587.78645,1.99959
1586.75675,2.00139
1585.72706,2.00259
1584.69737,2.00471
1583.66767,2.00638
1582.63798,2.00630
1581.60829,2.00551
1580.57859,2.00600
1579.54890,2.00917
1578.51921,2.01797
1577.48952,2.03270
1576.45982,2.02846
1575.43013,1.99830
1574.40044,1.99795
1573.37074,2.00928
1572.34105,2.01552
1571.31136,2.02433
1570.28167,2.03358
1569.25197,2.01849
1568.22228,2.00418
1567.19259,2.01125
1566.16289,2.02191
1565.13320,2.02127
1564.10351,2.01183
1563.07382,2.01423
1562.04412,2.03149
1561.01443,2.06007
1559.98474,2.09011
1558.95504,2.06355
1557.92535,1.99872
1556.89566,1.99243
1555.86597,2.01270
1554.83627,2.02914
1553.80658,2.01798
1552.77689,2.01110
1551.74719,2.02210
1550.71750,2.03149
1549.68781,2.02227
1548.65812,2.01326
1547.62842,2.01991
1546.59873,2.03370
1545.56904,2.04092
1544.53934,2.03407
1543.50965,2.03774
1542.47996,2.05053
1541.45026,2.05460
1540.42057,2.05756
1539.39088,2.02648
1538.36119,1.99431
1537.33149,2.00299
1536.30180,2.01991
1535.27211,2.03510
1534.24241,2.04217
1533.21272,2.02552
1532.18303,2.01213
1531.15334,2.01637
1530.12364,2.02698
1529.09395,2.03742
1528.06426,2.03629
1527.03456,2.03089
1526.00487,2.03042
1524.97518,2.02440
1523.94549,2.02806
1522.91579,2.04627
1521.88610,2.05077
1520.85641,2.01834
1519.82671,2.00633
1518.79702,2.02534
1517.76733,2.04517
1516.73764,2.03353
1515.70794,2.01946
1514.67825,2.02584
1513.64856,2.03846
1512.61886,2.04554
1511.58917,2.04340
1510.55948,2.04752
1509.52979,2.05751
1508.50009,2.06481
1507.47040,2.06779
1506.44071,2.04001
1505.41101,2.01477
1504.38132,2.02409
1503.35163,2.04016
1502.32193,2.04916
1501.29224,2.05083
1500.26255,2.05544
1499.23286,2.05943
1498.20316,2.05864
1497.17347,2.06387
1496.14378,2.05831
1495.11408,2.04770
1494.08439,2.05457
1493.05470,2.06538
1492.02501,2.07583
1490.99531,2.08454
1489.96562,2.07590
1488.93593,2.06705
1487.90623,2.07163
1486.87654,2.07049
1485.84685,2.06615
1484.81716,2.06913
1483.78746,2.07545
1482.75777,2.08249
1481.72808,2.08580
1480.69838,2.08236
1479.66869,2.08196
1478.63900,2.08811
1477.60931,2.09592
1476.57961,2.09482
1475.54992,2.08612
1474.52023,2.09247
1473.49053,2.10298
1472.46084,2.08600
1471.43115,2.06466
1470.40145,2.06701
1469.37176,2.07544
1468.34207,2.07889
1467.31238,2.08147
1466.28268,2.08746
1465.25299,2.08339
1464.22330,2.06465
1463.19360,2.06130
1462.16391,2.06836
1461.13422,2.07346
1460.10453,2.07995
1459.07483,2.08804
1458.04514,2.09013
1457.01545,2.07147
1455.98575,2.04557
1454.95606,2.04140
1453.92637,2.04936
1452.89668,2.05668
1451.86698,2.05583
1450.83729,2.05365
1449.80760,2.06045
1448.77790,2.06810
1447.74821,2.06031
1446.71852,2.04915
1445.68883,2.04877
1444.65913,2.05074
1443.62944,2.05054
1442.59975,2.04999
1441.57005,2.05110
1440.54036,2.05453
1439.51067,2.05916
1438.48098,2.06697
1437.45128,2.07177
1436.42159,2.04953
1435.39190,2.03310
1434.36220,2.04091
1433.33251,2.04812
1432.30282,2.04862
1431.27312,2.04989
1430.24343,2.04824
1429.21374,2.04095
1428.18405,2.03891
1427.15435,2.04078
1426.12466,2.04274
1425.09497,2.04587
1424.06527,2.04212
1423.03558,2.03346
1422.00589,2.03533
1420.97620,2.04639
1419.94650,2.05325
1418.91681,2.03674
1417.88712,2.02363
1416.85742,2.02480
1415.82773,2.02567
1414.79804,2.02580
1413.76835,2.02595
1412.73865,2.02523
1411.70896,2.02430
1410.67927,2.02344
1409.64957,2.02221
1408.61988,2.02203
1407.59019,2.02329
1406.56050,2.02611
1405.53080,2.02759
1404.50111,2.02239
1403.47142,2.01869
1402.44172,2.01983
1401.41203,2.02288
1400.38234,2.02927
1399.35265,2.02927
1398.32295,2.01733
1397.29326,2.01344
1396.26357,2.01876
1395.23387,2.01913
1394.20418,2.00983
1393.17449,2.00742
1392.14479,2.01308
1391.11510,2.01574
1390.08541,2.01478
1389.05572,2.01759
1388.02602,2.02054
1386.99633,2.01252
1385.96664,2.00516
1384.93694,2.00646
1383.90725,2.00914
1382.87756,2.01083
1381.84787,2.01199
1380.81817,2.01252
1379.78848,2.01229
1378.75879,2.01100
1377.72909,2.00941
1376.69940,2.01074
1375.66971,2.01546
1374.64002,2.01625
1373.61032,2.00789
1372.58063,2.00294
1371.55094,2.00579
1370.52124,2.00874
1369.49155,2.00957
1368.46186,2.00831
1367.43217,2.00651
1366.40247,2.00656
1365.37278,2.00923
1364.34309,2.01434
1363.31339,2.01433
1362.28370,2.00945
1361.25401,2.00894
1360.22432,2.01014
1359.19462,2.01319
1358.16493,2.01720
1357.13524,2.01942
1356.10554,2.02135
1355.07585,2.02307
1354.04616,2.02414
1353.01646,2.02487
1351.98677,2.02520
1350.95708,2.02644
1349.92739,2.02791
1348.89769,2.02856
1347.86800,2.03025
1346.83831,2.03244
1345.80861,2.03467
1344.77892,2.03700
1343.74923,2.03849
1342.71954,2.04136
1341.68984,2.04621
1340.66015,2.04929
1339.63046,2.04663
1338.60076,2.04263
1337.57107,2.04398
1336.54138,2.04677
1335.51169,2.04734
1334.48199,2.04734
1333.45230,2.04731
1332.42261,2.04751
1331.39291,2.04655
1330.36322,2.04316
1329.33353,2.03743
1328.30384,2.02974
1327.27414,2.02242
1326.24445,2.01472
1325.21476,2.00473
1324.18506,1.99381
1323.15537,1.98341
1322.12568,1.97360
1321.09599,1.96500
1320.06629,1.95819
1319.03660,1.95250
1318.00691,1.94892
1316.97721,1.94762
1315.94752,1.94679
1314.91783,1.94625
1313.88813,1.94564
1312.85844,1.94415
1311.82875,1.94374
1310.79906,1.94625
1309.76936,1.95029
1308.73967,1.95364
1307.70998,1.95598
1306.68028,1.95847
1305.65059,1.96188
1304.62090,1.96590
1303.59121,1.96945
1302.56151,1.97128
1301.53182,1.97263
1300.50213,1.97568
1299.47243,1.97881
1298.44274,1.98041
1297.41305,1.98122
1296.38336,1.98205
1295.35366,1.98448
1294.32397,1.98801
1293.29428,1.98982
1292.26458,1.99058
1291.23489,1.99220
1290.20520,1.99373
1289.17551,1.99457
1288.14581,1.99507
1287.11612,1.99488
1286.08643,1.99457
1285.05673,1.99508
1284.02704,1.99666
1282.99735,1.99912
1281.96766,2.00093
1280.93796,2.00161
1279.90827,2.00192
1278.87858,2.00275
1277.84888,2.00454
1276.81919,2.00541
1275.78950,2.00551
1274.75980,2.00653
1273.73011,2.00805
1272.70042,2.00923
1271.67073,2.00918
1270.64103,2.00869
1269.61134,2.00932
1268.58165,2.00991
1267.55195,2.01042
1266.52226,2.01287
1265.49257,2.01532
1264.46288,2.01472
1263.43318,2.01280
1262.40349,2.01337
1261.37380,2.01627
1260.34410,2.01736
1259.31441,2.01614
1258.28472,2.01477
1257.25503,2.01390
1256.22533,2.01398
1255.19564,2.01528
1254.16595,2.01700
1253.13625,2.01775
1252.10656,2.01801
1251.07687,2.01779
1250.04718,2.01727
1249.01748,2.01781
1247.98779,2.01850
1246.95810,2.01881
1245.92840,2.01865
1244.89871,2.01871
1243.86902,2.02072
1242.83933,2.02306
1241.80963,2.02366
1240.77994,2.02312
1239.75025,2.02198
1238.72055,2.02124
1237.69086,2.02185
1236.66117,2.02273
1235.63147,2.02356
1234.60178,2.02524
1233.57209,2.02729
1232.54240,2.02850
1231.51270,2.02867
1230.48301,2.02825
1229.45332,2.02687
1228.42362,2.02489
1227.39393,2.02484
1226.36424,2.02740
1225.33455,2.02938
1224.30485,2.02936
1223.27516,2.02966
1222.24547,2.03038
1221.21577,2.02986
1220.18608,2.03036
1219.15639,2.03300
1218.12670,2.03371
1217.09700,2.03180
1216.06731,2.03154
1215.03762,2.03403
1214.00792,2.03575
1212.97823,2.03516
1211.94854,2.03372
1210.91885,2.03282
1209.88915,2.03337
1208.85946,2.03472
1207.82977,2.03545
1206.80007,2.03440
1205.77038,2.03292
1204.74069,2.03327
1203.71100,2.03362
1202.68130,2.03286
1201.65161,2.03256
1200.62192,2.03221
1199.59222,2.03194
1198.56253,2.03300
1197.53284,2.03344
1196.50314,2.03201
1195.47345,2.03054
1194.44376,2.03065
1193.41407,2.03179
1192.38437,2.03228
1191.35468,2.03220
1190.32499,2.03217
1189.29529,2.03194
1188.26560,2.03196
1187.23591,2.03137
1186.20622,2.02914
1185.17652,2.02735
1184.14683,2.02692
1183.11714,2.02706
1182.08744,2.02832
1181.05775,2.03020
1180.02806,2.03068
1178.99837,2.03036
1177.96867,2.03053
1176.93898,2.02968
1175.90929,2.02721
1174.87959,2.02499
1173.84990,2.02495
1172.82021,2.02615
1171.79052,2.02603
1170.76082,2.02520
1169.73113,2.02556
1168.70144,2.02579
1167.67174,2.02452
1166.64205,2.02170
1165.61236,2.01878
1164.58266,2.01826
1163.55297,2.01888
1162.52328,2.01984
1161.49359,2.02155
1160.46389,2.02177
1159.43420,2.02014
1158.40451,2.01883
1157.37481,2.01842
1156.34512,2.01817
1155.31543,2.01787
1154.28574,2.01712
1153.25604,2.01567
1152.22635,2.01543
1151.19666,2.01792
1150.16696,2.02061
1149.13727,2.02001
1148.10758,2.01736
1147.07789,2.01668
1146.04819,2.01793
1145.01850,2.01879
1143.98881,2.01997
1142.95911,2.02132
1141.92942,2.02100
1140.89973,2.02073
1139.87004,2.02226
1138.84034,2.02385
1137.81065,2.02390
1136.78096,2.02243
1135.75126,2.02035
1134.72157,2.02012
1133.69188,2.02315
1132.66219,2.02479
1131.63249,2.02311
1130.60280,2.02333
1129.57311,2.02489
1128.54341,2.02395
1127.51372,2.02251
1126.48403,2.02246
1125.45433,2.02265
1124.42464,2.02294
1123.39495,2.02385
1122.36526,2.02511
1121.33556,2.02542
1120.30587,2.02386
1119.27618,2.02156
1118.24648,2.01998
1117.21679,2.01981
1116.18710,2.01992
1115.15741,2.01773
1114.12771,2.01402
1113.09802,2.01201
1112.06833,2.01192
1111.03863,2.01221
1110.00894,2.01329
1108.97925,2.01473
1107.94956,2.01378
1106.91986,2.01139
1105.89017,2.01029
1104.86048,2.00912
1103.83078,2.00659
1102.80109,2.00415
1101.77140,2.00470
1100.74171,2.00678
1099.71201,2.00577
1098.68232,2.00327
1097.65263,2.00188
1096.62293,1.99978
1095.59324,1.99731
1094.56355,1.99646
1093.53386,1.99541
1092.50416,1.99229
1091.47447,1.98878
1090.44478,1.98695
1089.41508,1.98788
1088.38539,1.98974
1087.35570,1.98799
1086.32600,1.98325
1085.29631,1.98010
1084.26662,1.97961
1083.23693,1.98055
1082.20723,1.98194
1081.17754,1.98266
1080.14785,1.98226
1079.11815,1.98152
1078.08846,1.97975
1077.05877,1.97670
1076.02908,1.97411
1074.99938,1.97192
1073.96969,1.96967
1072.94000,1.96777
1071.91030,1.96690
1070.88061,1.96813
1069.85092,1.96970
1068.82123,1.96805
1067.79153,1.96484
1066.76184,1.96428
1065.73215,1.96427
1064.70245,1.96153
1063.67276,1.95832
1062.64307,1.95707
1061.61338,1.95735
1060.58368,1.95631
1059.55399,1.95376
1058.52430,1.95243
1057.49460,1.95140
1056.46491,1.95016
1055.43522,1.94945
1054.40553,1.94798
1053.37583,1.94645
1052.34614,1.94556
1051.31645,1.94350
1050.28675,1.94012
1049.25706,1.93692
1048.22737,1.93457
1047.19767,1.93293
1046.16798,1.93184
1045.13829,1.93098
1044.10860,1.92960
1043.07890,1.92760
1042.04921,1.92544
1041.01952,1.92339
1039.98982,1.92060
1038.96013,1.91631
1037.93044,1.91185
1036.90075,1.90868
1035.87105,1.90625
1034.84136,1.90351
1033.81167,1.90023
1032.78197,1.89710
1031.75228,1.89691
1030.72259,1.89835
1029.69290,1.89704
1028.66320,1.89454
1027.63351,1.89289
1026.60382,1.89145
1025.57412,1.89091
1024.54443,1.88946
1023.51474,1.88625
1022.48505,1.88519
1021.45535,1.88654
1020.42566,1.88591
1019.39597,1.88271
1018.36627,1.88112
1017.33658,1.88258
1016.30689,1.88439
1015.27720,1.88443
1014.24750,1.88258
1013.21781,1.87972
1012.18812,1.87794
1011.15842,1.87888
1010.12873,1.88067
1009.09904,1.87975
1008.06934,1.87652
1007.03965,1.87553
1006.00996,1.87662
1004.98027,1.87670
1003.95057,1.87652
1002.92088,1.87697
1001.89119,1.87803
1000.86149,1.87894
999.83180,1.87874
998.80211,1.87853
997.77242,1.87882
996.74272,1.87849
995.71303,1.87824
994.68334,1.87881
993.65364,1.87963
992.62395,1.88044
991.59426,1.87979
990.56457,1.87847
989.53487,1.87897
988.50518,1.88045
987.47549,1.88117
986.44579,1.88125
985.41610,1.88125
984.38641,1.88112
983.35672,1.88123
982.32702,1.88231
981.29733,1.88354
980.26764,1.88410
979.23794,1.88456
978.20825,1.88573
977.17856,1.88713
976.14887,1.88736
975.11917,1.88730
974.08948,1.88791
973.05979,1.88933
972.03009,1.89194
971.00040,1.89426
969.97071,1.89527
968.94101,1.89624
967.91132,1.89738
966.88163,1.89674
965.85194,1.89437
964.82224,1.89346
963.79255,1.89568
962.76286,1.89879
961.73316,1.90184
960.70347,1.90474
959.67378,1.90589
958.64409,1.90588
957.61439,1.90577
956.58470,1.90603
955.55501,1.90641
954.52531,1.90579
953.49562,1.90542
952.46593,1.90782
951.43624,1.91157
950.40654,1.91370
949.37685,1.91463
948.34716,1.91614
947.31746,1.91899
946.28777,1.92101
945.25808,1.92026
944.22839,1.91778
943.19869,1.91702
942.16900,1.91903
941.13931,1.92042
940.10961,1.92069
939.07992,1.92136
938.05023,1.92293
937.02054,1.92526
935.99084,1.92624
934.96115,1.92540
933.93146,1.92535
932.90176,1.92671
931.87207,1.92711
930.84238,1.92674
929.81268,1.92787
928.78299,1.92882
927.75330,1.92784
926.72361,1.92684
925.69391,1.92740
924.66422,1.93002
923.63453,1.93243
922.60483,1.93243
921.57514,1.93224
920.54545,1.93343
919.51576,1.93489
918.48606,1.93543
917.45637,1.93498
916.42668,1.93481
915.39698,1.93425
914.36729,1.93202
913.33760,1.93121
912.30791,1.93369
911.27821,1.93555
910.24852,1.93494
909.21883,1.93568
908.18913,1.93897
907.15944,1.94058
906.12975,1.93934
905.10006,1.93851
904.07036,1.93935
903.04067,1.94060
902.01098,1.94119
900.98128,1.94129
899.95159,1.94224
898.92190,1.94451
897.89221,1.94803
896.86251,1.95050
895.83282,1.94964
894.80313,1.94853
893.77343,1.94909
892.74374,1.95091
891.71405,1.95350
890.68435,1.95520
889.65466,1.95624
888.62497,1.95753
887.59528,1.95917
886.56558,1.96050
885.53589,1.96156
884.50620,1.96364
883.47650,1.96496
882.44681,1.96469
881.41712,1.96612
880.38743,1.96909
879.35773,1.97077
878.32804,1.96956
877.29835,1.96582
876.26865,1.96262
875.23896,1.95937
874.20927,1.95438
873.17958,1.95034
872.14988,1.94750
871.12019,1.94518
870.09050,1.94585
869.06080,1.94889
868.03111,1.95276
867.00142,1.95635
865.97173,1.95654
864.94203,1.95639
863.91234,1.95796
862.88265,1.95851
861.85295,1.96060
860.82326,1.96353
859.79357,1.96376
858.76387,1.96539
857.73418,1.97040
856.70449,1.97382
855.67480,1.97423
854.64510,1.97407
853.61541,1.97457
852.58572,1.97767
851.55602,1.98194
850.52633,1.98200
849.49664,1.97943
848.46695,1.97978
847.43725,1.98224
846.40756,1.98284
845.37787,1.98046
844.34817,1.97840
843.31848,1.97907
842.28879,1.98128
841.25910,1.98612
840.22940,1.99152
839.19971,1.99036
838.17002,1.98568
837.14032,1.98550
836.11063,1.98779
835.08094,1.98860
834.05125,1.98834
833.02155,1.98762
831.99186,1.98901
830.96217,1.99384
829.93247,1.99710
828.90278,1.99740
827.87309,1.99882
826.84340,1.99860
825.81370,1.99599
824.78401,1.99529
823.75432,1.99691
822.72462,2.00169
821.69493,2.00508
820.66524,2.00275
819.63554,2.00001
818.60585,1.99830
817.57616,1.99739
816.54647,2.00077
815.51677,2.00412
814.48708,2.00245
813.45739,2.00125
812.42769,1.99926
811.39800,1.99422
810.36831,1.99411
809.33862,2.00046
808.30892,2.00596
807.27923,2.00672
806.24954,2.00804
805.21984,2.01352
804.19015,2.01637
803.16046,2.01347
802.13077,2.01078
801.10107,2.01005
800.07138,2.00987
799.04169,2.00901
798.01199,2.00780
796.98230,2.00891
795.95261,2.00938
794.92292,2.00812
793.89322,2.00708
792.86353,2.00582
791.83384,2.00610
790.80414,2.00659
789.77445,2.00585
788.74476,2.00672
787.71507,2.00847
786.68537,2.00736
785.65568,2.00339
784.62599,2.00265
783.59629,2.00719
782.56660,2.00876
781.53691,2.00353
780.50721,1.99694
779.47752,1.99202
778.44783,1.98733
777.41814,1.98355
776.38844,1.98245
775.35875,1.98289
774.32906,1.98345
773.29936,1.98395
772.26967,1.98244
771.23998,1.97941
770.21029,1.97979
769.18059,1.98327
768.15090,1.98444
767.12121,1.98321
766.09151,1.98340
765.06182,1.98351
764.03213,1.98240
763.00244,1.98412
761.97274,1.98747
760.94305,1.98779
759.91336,1.98690
758.88366,1.98568
757.85397,1.98384
756.82428,1.98385
755.79459,1.98463
754.76489,1.98397
753.73520,1.98418
752.70551,1.98593
751.67581,1.98416
750.64612,1.98089
749.61643,1.98209
748.58674,1.98553
747.55704,1.98689
746.52735,1.98616
745.49766,1.98657
744.46796,1.98896
743.43827,1.98901
742.40858,1.98612
741.37888,1.98379
740.34919,1.98294
739.31950,1.98546
738.28981,1.99028
737.26011,1.99376
736.23042,1.99608
735.20073,1.99670
734.17103,1.99604
733.14134,1.99702
732.11165,1.99915
731.08196,1.99636
730.05226,1.98797
729.02257,1.98505
727.99288,1.98870
726.96318,1.99320
725.93349,1.99599
724.90380,1.99182
723.87411,1.98837
722.84441,1.99430
721.81472,2.00387
720.78503,2.01224
719.75533,2.01600
718.72564,2.01257
717.69595,2.00662
716.66626,2.00529
715.63656,2.00694
714.60687,2.00531
713.57718,1.99864
712.54748,1.99153
711.51779,1.99094
710.48810,1.99498
709.45841,1.99943
708.42871,2.00107
707.39902,1.99826
706.36933,2.00159
705.33963,2.00981
704.30994,2.00894
703.28025,2.00300
702.25055,1.99847
701.22086,1.99498
700.19117,1.99584
699.16148,2.00209
698.13178,2.00520
697.10209,2.00326
696.07240,2.00365
695.04270,2.00218
694.01301,1.99880
692.98332,1.99997
691.95363,2.00388
690.92393,2.01025
689.89424,2.01722
688.86455,2.01845
687.83485,2.01291
686.80516,2.00504
685.77547,2.00109
684.74578,2.00315
683.71608,2.00612
682.68639,2.00552
681.65670,2.00457
680.62700,2.00522
679.59731,2.00149
678.56762,1.99307
677.53793,1.98974
676.50823,1.99983
675.47854,2.01563
674.44885,2.01960
673.41915,2.01231
672.38946,2.00884
671.35977,2.01327
670.33008,2.01783
669.30038,2.02082
668.27069,2.01738
667.24100,2.00303
666.21130,1.99860
665.18161,1.99795
664.15192,1.99868
663.12222,2.00612
662.09253,2.01604
661.06284,2.02110
660.03315,2.02131
659.00345,2.01551
657.97376,2.00705
656.94407,2.00444
655.91437,2.00835
654.88468,2.00406
653.85499,1.98687
652.82530,1.97679
651.79560,1.97859
650.76591,1.97930
649.73622,1.98161
648.70652,1.99338
647.67683,2.00149
646.64714,1.99317
645.61745,1.98374
644.58775,1.98356
643.55806,1.98296
642.52837,1.98003
641.49867,1.97855
640.46898,1.97913
639.43929,1.98552
638.40960,1.99035
637.37990,1.98539
636.35021,1.98098
635.32052,1.97912
634.29082,1.97073
633.26113,1.96496
632.23144,1.96740
631.20175,1.97047
630.17205,1.97404
629.14236,1.97784
628.11267,1.97590
627.08297,1.96739
626.05328,1.96009
625.02359,1.95483
623.99389,1.94989
622.96420,1.94470
621.93451,1.94405
620.90482,1.95317
619.87512,1.95941
618.84543,1.96517
617.81574,1.97760
616.78604,1.97608
615.75635,1.95629
614.72666,1.93736
613.69697,1.93412
612.66727,1.94170
611.63758,1.94612
610.60789,1.95020
609.57819,1.96384
608.54850,1.97239
607.51881,1.95872
606.48912,1.93969
605.45942,1.93719
604.42973,1.94223
603.40004,1.94167
602.37034,1.93592
601.34065,1.93133
600.31096,1.93307
599.28127,1.93634
