5998.03096,1.67375
5997.00125,1.67375
5995.97155,1.67375
5994.94184,1.67375
5993.91214,1.67375
5992.88243,1.67375
5991.85273,1.67375
5990.82302,1.67375
5989.79332,1.67375
5988.76361,1.67375
5987.73391,1.67375
5986.70420,1.67375
5985.67450,1.67375
5984.64479,1.67521
5983.61509,1.67699
5982.58538,1.67907
5981.55568,1.68139
5980.52597,1.68387
5979.49627,1.68643
5978.46656,1.68899
5977.43686,1.69146
5976.40715,1.69376
5975.37745,1.69581
5974.34774,1.69752
5973.31804,1.69880
5972.28833,1.69962
5971.25863,1.70005
5970.22892,1.70014
5969.19922,1.69991
5968.16951,1.69942
5967.13981,1.69875
5966.11010,1.69800
5965.08040,1.69730
5964.05069,1.69673
5963.02099,1.69638
5961.99128,1.69631
5960.96158,1.69654
5959.93187,1.69708
5958.90217,1.69793
5957.87247,1.69900
5956.84276,1.70020
5955.81306,1.70146
5954.78335,1.70269
5953.75365,1.70382
5952.72394,1.70477
5951.69424,1.70547
5950.66453,1.70586
5949.63483,1.70590
5948.60512,1.70557
5947.57542,1.70492
5946.54571,1.70397
5945.51601,1.70276
5944.48630,1.70133
5943.45660,1.69976
5942.42689,1.69811
5941.39719,1.69648
5940.36748,1.69493
5939.33778,1.69350
5938.30807,1.69224
5937.27837,1.69121
5936.24866,1.69044
5935.21896,1.68997
5934.18925,1.68981
5933.15955,1.68991
5932.12984,1.69026
5931.10014,1.69082
5930.07043,1.69157
5929.04073,1.69245
5928.01102,1.69342
5926.98132,1.69442
5925.95161,1.69537
5924.92191,1.69622
5923.89220,1.69693
5922.86250,1.69750
5921.83279,1.69787
5920.80309,1.69803
5919.77338,1.69796
5918.74368,1.69765
5917.71397,1.69712
5916.68427,1.69640
5915.65456,1.69552
5914.62486,1.69457
5913.59515,1.69362
5912.56545,1.69275
5911.53575,1.69207
5910.50604,1.69162
5909.47634,1.69148
5908.44663,1.69169
5907.41693,1.69228
5906.38722,1.69330
5905.35752,1.69474
5904.32781,1.69657
5903.29811,1.69872
5902.26840,1.70114
5901.23870,1.70374
5900.20899,1.70646
5899.17929,1.70926
5898.14958,1.71207
5897.11988,1.71482
5896.09017,1.71744
5895.06047,1.71989
5894.03076,1.72212
5893.00106,1.72409
5891.97135,1.72581
5890.94165,1.72728
5889.91194,1.72853
5888.88224,1.72962
5887.85253,1.73061
5886.82283,1.73155
5885.79312,1.73253
5884.76342,1.73360
5883.73371,1.73480
5882.70401,1.73614
5881.67430,1.73763
5880.64460,1.73926
5879.61489,1.74097
5878.58519,1.74272
5877.55548,1.74449
5876.52578,1.74626
5875.49607,1.74801
5874.46637,1.74970
5873.43666,1.75129
5872.40696,1.75268
5871.37725,1.75380
5870.34755,1.75455
5869.31784,1.75490
5868.28814,1.75479
5867.25844,1.75426
5866.22873,1.75333
5865.19903,1.75207
5864.16932,1.75058
5863.13962,1.74892
5862.10991,1.74718
5861.08021,1.74542
5860.05050,1.74372
5859.02080,1.74212
5857.99109,1.74068
5856.96139,1.73944
5855.93168,1.73843
5854.90198,1.73769
5853.87227,1.73727
5852.84257,1.73719
5851.81286,1.73744
5850.78316,1.73799
5849.75345,1.73878
5848.72375,1.73970
5847.69404,1.74065
5846.66434,1.74154
5845.63463,1.74232
5844.60493,1.74296
5843.57522,1.74347
5842.54552,1.74385
5841.51581,1.74416
5840.48611,1.74443
5839.45640,1.74465
5838.42670,1.74483
5837.39699,1.74498
5836.36729,1.74510
5835.33758,1.74521
5834.30788,1.74535
5833.27817,1.74554
5832.24847,1.74582
5831.21876,1.74622
5830.18906,1.74672
5829.15935,1.74732
5828.12965,1.74797
5827.09994,1.74864
5826.07024,1.74929
5825.04053,1.74988
5824.01083,1.75037
5822.98113,1.75074
5821.95142,1.75101
5820.92172,1.75119
5819.89201,1.75134
5818.86231,1.75149
5817.83260,1.75170
5816.80290,1.75197
5815.77319,1.75229
5814.74349,1.75264
5813.71378,1.75301
5812.68408,1.75340
5811.65437,1.75381
5810.62467,1.75424
5809.59496,1.75470
5808.56526,1.75520
5807.53555,1.75569
5806.50585,1.75614
5805.47614,1.75650
5804.44644,1.75674
5803.41673,1.75683
5802.38703,1.75678
5801.35732,1.75658
5800.32762,1.75625
5799.29791,1.75581
5798.26821,1.75529
5797.23850,1.75476
5796.20880,1.75425
5795.17909,1.75382
5794.14939,1.75350
5793.11968,1.75330
5792.08998,1.75322
5791.06027,1.75328
5790.03057,1.75347
5789.00086,1.75381
5787.97116,1.75428
5786.94145,1.75487
5785.91175,1.75556
5784.88204,1.75635
5783.85234,1.75717
5782.82263,1.75799
5781.79293,1.75873
5780.76322,1.75937
5779.73352,1.75988
5778.70382,1.76025
5777.67411,1.76048
5776.64441,1.76057
5775.61470,1.76051
5774.58500,1.76033
5773.55529,1.76004
5772.52559,1.75967
5771.49588,1.75921
5770.46618,1.75867
5769.43647,1.75808
5768.40677,1.75745
5767.37706,1.75681
5766.34736,1.75620
5765.31765,1.75564
5764.28795,1.75510
5763.25824,1.75459
5762.22854,1.75410
5761.19883,1.75363
5760.16913,1.75316
5759.13942,1.75265
5758.10972,1.75209
5757.08001,1.75145
5756.05031,1.75076
5755.02060,1.75004
5753.99090,1.74931
5752.96119,1.74859
5751.93149,1.74789
5750.90178,1.74724
5749.87208,1.74665
5748.84237,1.74611
5747.81267,1.74564
5746.78296,1.74523
5745.75326,1.74489
5744.72355,1.74463
5743.69385,1.74446
5742.66414,1.74438
5741.63444,1.74439
5740.60473,1.74443
5739.57503,1.74446
5738.54532,1.74445
5737.51562,1.74437
5736.48591,1.74420
5735.45621,1.74390
5734.42650,1.74344
5733.39680,1.74284
5732.36710,1.74212
5731.33739,1.74130
5730.30769,1.74040
5729.27798,1.73945
5728.24828,1.73846
5727.21857,1.73748
5726.18887,1.73653
5725.15916,1.73560
5724.12946,1.73472
5723.09975,1.73391
5722.07005,1.73316
5721.04034,1.73248
5720.01064,1.73191
5718.98093,1.73145
5717.95123,1.73114
5716.92152,1.73096
5715.89182,1.73091
5714.86211,1.73099
5713.83241,1.73122
5712.80270,1.73159
5711.77300,1.73212
5710.74329,1.73280
5709.71359,1.73364
5708.68388,1.73464
5707.65418,1.73580
5706.62447,1.73708
5705.59477,1.73849
5704.56506,1.74001
5703.53536,1.74161
5702.50565,1.74324
5701.47595,1.74485
5700.44624,1.74636
5699.41654,1.74773
5698.38683,1.74891
5697.35713,1.74987
5696.32742,1.75061
5695.29772,1.75114
5694.26801,1.75146
5693.23831,1.75157
5692.20860,1.75150
5691.17890,1.75127
5690.14919,1.75093
5689.11949,1.75053
5688.08979,1.75011
5687.06008,1.74972
5686.03038,1.74942
5685.00067,1.74927
5683.97097,1.74928
5682.94126,1.74950
5681.91156,1.74993
5680.88185,1.75059
5679.85215,1.75145
5678.82244,1.75244
5677.79274,1.75349
5676.76303,1.75451
5675.73333,1.75543
5674.70362,1.75619
5673.67392,1.75675
5672.64421,1.75705
5671.61451,1.75708
5670.58480,1.75680
5669.55510,1.75616
5668.52539,1.75517
5667.49569,1.75385
5666.46598,1.75224
5665.43628,1.75038
5664.40657,1.74833
5663.37687,1.74618
5662.34716,1.74402
5661.31746,1.74195
5660.28775,1.74005
5659.25805,1.73836
5658.22834,1.73694
5657.19864,1.73584
5656.16893,1.73505
5655.13923,1.73457
5654.10952,1.73433
5653.07982,1.73431
5652.05011,1.73446
5651.02041,1.73474
5649.99070,1.73511
5648.96100,1.73554
5647.93129,1.73596
5646.90159,1.73632
5645.87188,1.73655
5644.84218,1.73662
5643.81248,1.73650
5642.78277,1.73621
5641.75307,1.73572
5640.72336,1.73506
5639.69366,1.73425
5638.66395,1.73335
5637.63425,1.73238
5636.60454,1.73137
5635.57484,1.73038
5634.54513,1.72943
5633.51543,1.72856
5632.48572,1.72780
5631.45602,1.72714
5630.42631,1.72659
5629.39661,1.72615
5628.36690,1.72583
5627.33720,1.72565
5626.30749,1.72558
5625.27779,1.72563
5624.24808,1.72575
5623.21838,1.72590
5622.18867,1.72603
5621.15897,1.72612
5620.12926,1.72616
5619.09956,1.72612
5618.06985,1.72598
5617.04015,1.72573
5616.01044,1.72539
5614.98074,1.72496
5613.95103,1.72447
5612.92133,1.72396
5611.89162,1.72347
5610.86192,1.72303
5609.83221,1.72269
5608.80251,1.72244
5607.77280,1.72232
5606.74310,1.72232
5605.71339,1.72248
5604.68369,1.72282
5603.65398,1.72335
5602.62428,1.72406
5601.59457,1.72489
5600.56487,1.72579
5599.53517,1.72671
5598.50546,1.72761
5597.47576,1.72846
5596.44605,1.72925
5595.41635,1.72994
5594.38664,1.73051
5593.35694,1.73096
5592.32723,1.73131
5591.29753,1.73157
5590.26782,1.73177
5589.23812,1.73195
5588.20841,1.73211
5587.17871,1.73228
5586.14900,1.73246
5585.11930,1.73262
5584.08959,1.73277
5583.05989,1.73288
5582.03018,1.73296
5581.00048,1.73301
5579.97077,1.73299
5578.94107,1.73287
5577.91136,1.73259
5576.88166,1.73212
5575.85195,1.73145
5574.82225,1.73058
5573.79254,1.72954
5572.76284,1.72838
5571.73313,1.72713
5570.70343,1.72584
5569.67372,1.72457
5568.64402,1.72342
5567.61431,1.72245
5566.58461,1.72173
5565.55490,1.72129
5564.52520,1.72114
5563.49549,1.72129
5562.46579,1.72171
5561.43608,1.72239
5560.40638,1.72328
5559.37667,1.72432
5558.34697,1.72548
5557.31726,1.72670
5556.28756,1.72787
5555.25785,1.72891
5554.22815,1.72972
5553.19845,1.73026
5552.16874,1.73049
5551.13904,1.73041
5550.10933,1.73003
5549.07963,1.72939
5548.04992,1.72852
5547.02022,1.72746
5545.99051,1.72628
5544.96081,1.72508
5543.93110,1.72391
5542.90140,1.72282
5541.87169,1.72185
5540.84199,1.72103
5539.81228,1.72038
5538.78258,1.71993
5537.75287,1.71967
5536.72317,1.71961
5535.69346,1.71973
5534.66376,1.72002
5533.63405,1.72045
5532.60435,1.72094
5531.57464,1.72143
5530.54494,1.72186
5529.51523,1.72222
5528.48553,1.72252
5527.45582,1.72275
5526.42612,1.72294
5525.39641,1.72309
5524.36671,1.72323
5523.33700,1.72336
5522.30730,1.72348
5521.27759,1.72362
5520.24789,1.72377
5519.21818,1.72390
5518.18848,1.72400
5517.15877,1.72406
5516.12907,1.72409
5515.09936,1.72407
5514.06966,1.72398
5513.03995,1.72383
5512.01025,1.72359
5510.98054,1.72328
5509.95084,1.72290
5508.92114,1.72241
5507.89143,1.72182
5506.86173,1.72114
5505.83202,1.72041
5504.80232,1.71969
5503.77261,1.71905
5502.74291,1.71854
5501.71320,1.71819
5500.68350,1.71804
5499.65379,1.71808
5498.62409,1.71828
5497.59438,1.71864
5496.56468,1.71910
5495.53497,1.71964
5494.50527,1.72021
5493.47556,1.72079
5492.44586,1.72136
5491.41615,1.72188
5490.38645,1.72232
5489.35674,1.72262
5488.32704,1.72279
5487.29733,1.72281
5486.26763,1.72268
5485.23792,1.72237
5484.20822,1.72189
5483.17851,1.72125
5482.14881,1.72050
5481.11910,1.71968
5480.08940,1.71886
5479.05969,1.71808
5478.02999,1.71736
5477.00028,1.71672
5475.97058,1.71615
5474.94087,1.71562
5473.91117,1.71514
5472.88146,1.71469
5471.85176,1.71429
5470.82205,1.71393
5469.79235,1.71360
5468.76264,1.71330
5467.73294,1.71301
5466.70323,1.71273
5465.67353,1.71242
5464.64383,1.71210
5463.61412,1.71179
5462.58442,1.71149
5461.55471,1.71122
5460.52501,1.71098
5459.49530,1.71079
5458.46560,1.71069
5457.43589,1.71072
5456.40619,1.71093
5455.37648,1.71133
5454.34678,1.71192
5453.31707,1.71268
5452.28737,1.71359
5451.25766,1.71460
5450.22796,1.71570
5449.19825,1.71687
5448.16855,1.71807
5447.13884,1.71925
5446.10914,1.72033
5445.07943,1.72128
5444.04973,1.72205
5443.02002,1.72260
5441.99032,1.72290
5440.96061,1.72295
5439.93091,1.72276
5438.90120,1.72237
5437.87150,1.72179
5436.84179,1.72105
5435.81209,1.72019
5434.78238,1.71929
5433.75268,1.71841
5432.72297,1.71761
5431.69327,1.71694
5430.66356,1.71640
5429.63386,1.71600
5428.60415,1.71574
5427.57445,1.71561
5426.54474,1.71561
5425.51504,1.71572
5424.48533,1.71589
5423.45563,1.71607
5422.42592,1.71619
5421.39622,1.71621
5420.36652,1.71609
5419.33681,1.71578
5418.30711,1.71526
5417.27740,1.71454
5416.24770,1.71362
5415.21799,1.71253
5414.18829,1.71129
5413.15858,1.70994
5412.12888,1.70853
5411.09917,1.70713
5410.06947,1.70581
5409.03976,1.70462
5408.01006,1.70358
5406.98035,1.70269
5405.95065,1.70197
5404.92094,1.70141
5403.89124,1.70102
5402.86153,1.70080
5401.83183,1.70072
5400.80212,1.70073
5399.77242,1.70078
5398.74271,1.70082
5397.71301,1.70080
5396.68330,1.70070
5395.65360,1.70048
5394.62389,1.70012
5393.59419,1.69964
5392.56448,1.69906
5391.53478,1.69839
5390.50507,1.69768
5389.47537,1.69695
5388.44566,1.69628
5387.41596,1.69570
5386.38625,1.69528
5385.35655,1.69506
5384.32684,1.69506
5383.29714,1.69528
5382.26743,1.69573
5381.23773,1.69639
5380.20802,1.69729
5379.17832,1.69840
5378.14861,1.69969
5377.11891,1.70113
5376.08920,1.70264
5375.05950,1.70418
5374.02980,1.70569
5373.00009,1.70713
5371.97039,1.70842
5370.94068,1.70954
5369.91098,1.71045
5368.88127,1.71113
5367.85157,1.71155
5366.82186,1.71169
5365.79216,1.71158
5364.76245,1.71122
5363.73275,1.71066
5362.70304,1.70992
5361.67334,1.70904
5360.64363,1.70806
5359.61393,1.70699
5358.58422,1.70586
5357.55452,1.70473
5356.52481,1.70365
5355.49511,1.70269
5354.46540,1.70188
5353.43570,1.70124
5352.40599,1.70081
5351.37629,1.70060
5350.34658,1.70061
5349.31688,1.70083
5348.28717,1.70122
5347.25747,1.70177
5346.22776,1.70245
5345.19806,1.70322
5344.16835,1.70404
5343.13865,1.70489
5342.10894,1.70575
5341.07924,1.70659
5340.04953,1.70740
5339.01983,1.70814
5337.99012,1.70878
5336.96042,1.70928
5335.93071,1.70963
5334.90101,1.70979
5333.87130,1.70978
5332.84160,1.70962
5331.81189,1.70933
5330.78219,1.70893
5329.75249,1.70841
5328.72278,1.70782
5327.69308,1.70716
5326.66337,1.70647
5325.63367,1.70575
5324.60396,1.70502
5323.57426,1.70431
5322.54455,1.70365
5321.51485,1.70308
5320.48514,1.70263
5319.45544,1.70233
5318.42573,1.70221
5317.39603,1.70230
5316.36632,1.70260
5315.33662,1.70309
5314.30691,1.70378
5313.27721,1.70462
5312.24750,1.70561
5311.21780,1.70673
5310.18809,1.70796
5309.15839,1.70927
5308.12868,1.71064
5307.09898,1.71201
5306.06927,1.71336
5305.03957,1.71464
5304.00986,1.71585
5302.98016,1.71694
5301.95045,1.71790
5300.92075,1.71873
5299.89104,1.71943
5298.86134,1.72002
5297.83163,1.72052
5296.80193,1.72095
5295.77222,1.72133
5294.74252,1.72170
5293.71281,1.72207
5292.68311,1.72247
5291.65340,1.72291
5290.62370,1.72340
5289.59399,1.72397
5288.56429,1.72463
5287.53458,1.72540
5286.50488,1.72628
5285.47518,1.72728
5284.44547,1.72839
5283.41577,1.72957
5282.38606,1.73082
5281.35636,1.73211
5280.32665,1.73342
5279.29695,1.73473
5278.26724,1.73599
5277.23754,1.73718
5276.20783,1.73828
5275.17813,1.73926
5274.14842,1.74009
5273.11872,1.74076
5272.08901,1.74126
5271.05931,1.74157
5270.02960,1.74170
5268.99990,1.74166
5267.97019,1.74146
5266.94049,1.74112
5265.91078,1.74068
5264.88108,1.74018
5263.85137,1.73968
5262.82167,1.73925
5261.79196,1.73892
5260.76226,1.73874
5259.73255,1.73872
5258.70285,1.73889
5257.67314,1.73927
5256.64344,1.73989
5255.61373,1.74074
5254.58403,1.74182
5253.55432,1.74310
5252.52462,1.74455
5251.49491,1.74613
5250.46521,1.74780
5249.43550,1.74950
5248.40580,1.75120
5247.37609,1.75288
5246.34639,1.75449
5245.31668,1.75600
5244.28698,1.75739
5243.25727,1.75865
5242.22757,1.75977
5241.19786,1.76076
5240.16816,1.76165
5239.13846,1.76243
5238.10875,1.76310
5237.07905,1.76364
5236.04934,1.76405
5235.01964,1.76434
5233.98993,1.76453
5232.96023,1.76466
5231.93052,1.76477
5230.90082,1.76487
5229.87111,1.76496
5228.84141,1.76505
5227.81170,1.76514
5226.78200,1.76524
5225.75229,1.76538
5224.72259,1.76559
5223.69288,1.76591
5222.66318,1.76636
5221.63347,1.76693
5220.60377,1.76764
5219.57406,1.76849
5218.54436,1.76947
5217.51465,1.77059
5216.48495,1.77182
5215.45524,1.77310
5214.42554,1.77439
5213.39583,1.77564
5212.36613,1.77682
5211.33642,1.77790
5210.30672,1.77888
5209.27701,1.77976
5208.24731,1.78050
5207.21760,1.78107
5206.18790,1.78142
5205.15819,1.78153
5204.12849,1.78142
5203.09878,1.78111
5202.06908,1.78063
5201.03937,1.78004
5200.00967,1.77938
5198.97996,1.77868
5197.95026,1.77795
5196.92055,1.77724
5195.89085,1.77659
5194.86115,1.77605
5193.83144,1.77565
5192.80174,1.77542
5191.77203,1.77540
5190.74233,1.77561
5189.71262,1.77610
5188.68292,1.77690
5187.65321,1.77802
5186.62351,1.77944
5185.59380,1.78112
5184.56410,1.78299
5183.53439,1.78496
5182.50469,1.78696
5181.47498,1.78891
5180.44528,1.79073
5179.41557,1.79237
5178.38587,1.79379
5177.35616,1.79495
5176.32646,1.79582
5175.29675,1.79637
5174.26705,1.79658
5173.23734,1.79646
5172.20764,1.79605
5171.17793,1.79537
5170.14823,1.79450
5169.11852,1.79352
5168.08882,1.79250
5167.05911,1.79157
5166.02941,1.79081
5164.99970,1.79030
5163.97000,1.79008
5162.94029,1.79016
5161.91059,1.79055
5160.88088,1.79122
5159.85118,1.79212
5158.82147,1.79320
5157.79177,1.79439
5156.76206,1.79562
5155.73236,1.79684
5154.70265,1.79801
5153.67295,1.79909
5152.64324,1.80006
5151.61354,1.80085
5150.58384,1.80143
5149.55413,1.80175
5148.52443,1.80181
5147.49472,1.80160
5146.46502,1.80114
5145.43531,1.80048
5144.40561,1.79966
5143.37590,1.79877
5142.34620,1.79786
5141.31649,1.79699
5140.28679,1.79622
5139.25708,1.79557
5138.22738,1.79507
5137.19767,1.79473
5136.16797,1.79456
5135.13826,1.79454
5134.10856,1.79464
5133.07885,1.79483
5132.04915,1.79511
5131.01944,1.79549
5129.98974,1.79596
5128.96003,1.79649
5127.93033,1.79704
5126.90062,1.79753
5125.87092,1.79794
5124.84121,1.79821
5123.81151,1.79832
5122.78180,1.79828
5121.75210,1.79807
5120.72239,1.79771
5119.69269,1.79724
5118.66298,1.79669
5117.63328,1.79612
5116.60357,1.79554
5115.57387,1.79499
5114.54416,1.79447
5113.51446,1.79401
5112.48475,1.79361
5111.45505,1.79326
5110.42534,1.79296
5109.39564,1.79270
5108.36593,1.79250
5107.33623,1.79237
5106.30653,1.79230
5105.27682,1.79228
5104.24712,1.79227
5103.21741,1.79222
5102.18771,1.79211
5101.15800,1.79191
5100.12830,1.79159
5099.09859,1.79114
5098.06889,1.79056
5097.03918,1.78985
5096.00948,1.78906
5094.97977,1.78821
5093.95007,1.78734
5092.92036,1.78650
5091.89066,1.78571
5090.86095,1.78500
5089.83125,1.78440
5088.80154,1.78393
5087.77184,1.78361
5086.74213,1.78346
5085.71243,1.78349
5084.68272,1.78369
5083.65302,1.78407
5082.62331,1.78462
5081.59361,1.78530
5080.56390,1.78608
5079.53420,1.78690
5078.50449,1.78771
5077.47479,1.78846
5076.44508,1.78911
5075.41538,1.78961
5074.38567,1.78993
5073.35597,1.79006
5072.32626,1.79000
5071.29656,1.78975
5070.26685,1.78934
5069.23715,1.78879
5068.20744,1.78809
5067.17774,1.78727
5066.14803,1.78635
5065.11833,1.78537
5064.08862,1.78436
5063.05892,1.78335
5062.02921,1.78237
5060.99951,1.78145
5059.96981,1.78060
5058.94010,1.77983
5057.91040,1.77915
5056.88069,1.77858
5055.85099,1.77812
5054.82128,1.77776
5053.79158,1.77751
5052.76187,1.77736
5051.73217,1.77733
5050.70246,1.77740
5049.67276,1.77757
5048.64305,1.77783
5047.61335,1.77815
5046.58364,1.77853
5045.55394,1.77891
5044.52423,1.77927
5043.49453,1.77956
5042.46482,1.77975
5041.43512,1.77984
5040.40541,1.77980
5039.37571,1.77965
5038.34600,1.77937
5037.31630,1.77896
5036.28659,1.77842
5035.25689,1.77774
5034.22718,1.77695
5033.19748,1.77609
5032.16777,1.77519
5031.13807,1.77428
5030.10836,1.77342
5029.07866,1.77264
5028.04895,1.77199
5027.01925,1.77150
5025.98954,1.77121
5024.95984,1.77109
5023.93013,1.77114
5022.90043,1.77132
5021.87072,1.77163
5020.84102,1.77201
5019.81131,1.77245
5018.78161,1.77291
5017.75190,1.77335
5016.72220,1.77376
5015.69250,1.77412
5014.66279,1.77441
5013.63309,1.77461
5012.60338,1.77472
5011.57368,1.77471
5010.54397,1.77460
5009.51427,1.77438
5008.48456,1.77409
5007.45486,1.77375
5006.42515,1.77338
5005.39545,1.77301
5004.36574,1.77267
5003.33604,1.77238
5002.30633,1.77216
5001.27663,1.77201
5000.24692,1.77191
4999.21722,1.77184
4998.18751,1.77180
4997.15781,1.77178
4996.12810,1.77173
4995.09840,1.77165
4994.06869,1.77151
4993.03899,1.77129
4992.00928,1.77102
4990.97958,1.77068
4989.94987,1.77028
4988.92017,1.76983
4987.89046,1.76932
4986.86076,1.76875
4985.83105,1.76812
4984.80135,1.76744
4983.77164,1.76674
4982.74194,1.76603
4981.71223,1.76532
4980.68253,1.76462
4979.65282,1.76398
4978.62312,1.76342
4977.59341,1.76297
4976.56371,1.76265
4975.53400,1.76247
4974.50430,1.76241
4973.47459,1.76249
4972.44489,1.76270
4971.41519,1.76303
4970.38548,1.76349
4969.35578,1.76410
4968.32607,1.76485
4967.29637,1.76575
4966.26666,1.76677
4965.23696,1.76786
4964.20725,1.76899
4963.17755,1.77009
4962.14784,1.77112
4961.11814,1.77202
4960.08843,1.77275
4959.05873,1.77326
4958.02902,1.77350
4956.99932,1.77346
4955.96961,1.77315
4954.93991,1.77260
4953.91020,1.77183
4952.88050,1.77088
4951.85079,1.76976
4950.82109,1.76851
4949.79138,1.76718
4948.76168,1.76583
4947.73197,1.76454
4946.70227,1.76337
4945.67256,1.76241
4944.64286,1.76168
4943.61315,1.76120
4942.58345,1.76098
4941.55374,1.76100
4940.52404,1.76125
4939.49433,1.76170
4938.46463,1.76231
4937.43492,1.76305
4936.40522,1.76385
4935.37551,1.76467
4934.34581,1.76545
4933.31610,1.76618
4932.28640,1.76683
4931.25669,1.76738
4930.22699,1.76785
4929.19728,1.76820
4928.16758,1.76845
4927.13788,1.76859
4926.10817,1.76866
4925.07847,1.76867
4924.04876,1.76868
4923.01906,1.76869
4921.98935,1.76872
4920.95965,1.76877
4919.92994,1.76884
4918.90024,1.76893
4917.87053,1.76904
4916.84083,1.76918
4915.81112,1.76936
4914.78142,1.76956
4913.75171,1.76978
4912.72201,1.77000
4911.69230,1.77022
4910.66260,1.77044
4909.63289,1.77065
4908.60319,1.77085
4907.57348,1.77103
4906.54378,1.77119
4905.51407,1.77134
4904.48437,1.77147
4903.45466,1.77161
4902.42496,1.77175
4901.39525,1.77190
4900.36555,1.77206
4899.33584,1.77222
4898.30614,1.77237
4897.27643,1.77249
4896.24673,1.77259
4895.21702,1.77267
4894.18732,1.77274
4893.15761,1.77280
4892.12791,1.77286
4891.09820,1.77292
4890.06850,1.77296
4889.03879,1.77300
4888.00909,1.77305
4886.97938,1.77309
4885.94968,1.77311
4884.91997,1.77312
4883.89027,1.77311
4882.86056,1.77308
4881.83086,1.77304
4880.80116,1.77298
4879.77145,1.77293
4878.74175,1.77291
4877.71204,1.77292
4876.68234,1.77298
4875.65263,1.77308
4874.62293,1.77323
4873.59322,1.77345
4872.56352,1.77374
4871.53381,1.77413
4870.50411,1.77462
4869.47440,1.77519
4868.44470,1.77585
4867.41499,1.77657
4866.38529,1.77736
4865.35558,1.77819
4864.32588,1.77903
4863.29617,1.77986
4862.26647,1.78063
4861.23676,1.78131
4860.20706,1.78186
4859.17735,1.78226
4858.14765,1.78247
4857.11794,1.78247
4856.08824,1.78227
4855.05853,1.78188
4854.02883,1.78134
4852.99912,1.78065
4851.96942,1.77984
4850.93971,1.77895
4849.91001,1.77801
4848.88030,1.77708
4847.85060,1.77620
4846.82089,1.77539
4845.79119,1.77469
4844.76148,1.77413
4843.73178,1.77375
4842.70207,1.77358
4841.67237,1.77361
4840.64266,1.77386
4839.61296,1.77430
4838.58325,1.77492
4837.55355,1.77568
4836.52385,1.77654
4835.49414,1.77746
4834.46444,1.77839
4833.43473,1.77930
4832.40503,1.78016
4831.37532,1.78097
4830.34562,1.78169
4829.31591,1.78232
4828.28621,1.78283
4827.25650,1.78323
4826.22680,1.78352
4825.19709,1.78371
4824.16739,1.78379
4823.13768,1.78378
4822.10798,1.78370
4821.07827,1.78357
4820.04857,1.78342
4819.01886,1.78327
4817.98916,1.78313
4816.95945,1.78301
4815.92975,1.78291
4814.90004,1.78283
4813.87034,1.78277
4812.84063,1.78270
4811.81093,1.78262
4810.78122,1.78252
4809.75152,1.78240
4808.72181,1.78223
4807.69211,1.78203
4806.66240,1.78179
4805.63270,1.78150
4804.60299,1.78119
4803.57329,1.78088
4802.54358,1.78056
4801.51388,1.78026
4800.48417,1.77998
4799.45447,1.77973
4798.42476,1.77954
4797.39506,1.77943
4796.36535,1.77941
4795.33565,1.77949
4794.30594,1.77966
4793.27624,1.77992
4792.24654,1.78026
4791.21683,1.78066
4790.18713,1.78109
4789.15742,1.78153
4788.12772,1.78196
4787.09801,1.78236
4786.06831,1.78271
4785.03860,1.78301
4784.00890,1.78324
4782.97919,1.78342
4781.94949,1.78354
4780.91978,1.78363
4779.89008,1.78369
4778.86037,1.78373
4777.83067,1.78375
4776.80096,1.78375
4775.77126,1.78375
4774.74155,1.78374
4773.71185,1.78374
4772.68214,1.78376
4771.65244,1.78378
4770.62273,1.78382
4769.59303,1.78387
4768.56332,1.78392
4767.53362,1.78397
4766.50391,1.78399
4765.47421,1.78398
4764.44450,1.78395
4763.41480,1.78390
4762.38509,1.78382
4761.35539,1.78373
4760.32568,1.78363
4759.29598,1.78353
4758.26627,1.78345
4757.23657,1.78339
4756.20686,1.78336
4755.17716,1.78334
4754.14745,1.78334
4753.11775,1.78335
4752.08804,1.78337
4751.05834,1.78341
4750.02863,1.78346
4748.99893,1.78354
4747.96923,1.78367
4746.93952,1.78385
4745.90982,1.78408
4744.88011,1.78437
4743.85041,1.78472
4742.82070,1.78511
4741.79100,1.78555
4740.76129,1.78602
4739.73159,1.78653
4738.70188,1.78705
4737.67218,1.78758
4736.64247,1.78811
4735.61277,1.78864
4734.58306,1.78916
4733.55336,1.78968
4732.52365,1.79016
4731.49395,1.79059
4730.46424,1.79096
4729.43454,1.79127
4728.40483,1.79153
4727.37513,1.79173
4726.34542,1.79189
4725.31572,1.79203
4724.28601,1.79215
4723.25631,1.79228
4722.22660,1.79240
4721.19690,1.79251
4720.16719,1.79260
4719.13749,1.79267
4718.10778,1.79269
4717.07808,1.79266
4716.04837,1.79255
4715.01867,1.79238
4713.98896,1.79214
4712.95926,1.79184
4711.92955,1.79148
4710.89985,1.79108
4709.87014,1.79065
4708.84044,1.79017
4707.81073,1.78966
4706.78103,1.78913
4705.75132,1.78861
4704.72162,1.78811
4703.69191,1.78765
4702.66221,1.78726
4701.63251,1.78694
4700.60280,1.78671
4699.57310,1.78658
4698.54339,1.78654
4697.51369,1.78659
4696.48398,1.78672
4695.45428,1.78694
4694.42457,1.78721
4693.39487,1.78754
4692.36516,1.78790
4691.33546,1.78831
4690.30575,1.78876
4689.27605,1.78926
4688.24634,1.78981
4687.21664,1.79038
4686.18693,1.79099
4685.15723,1.79162
4684.12752,1.79227
4683.09782,1.79294
4682.06811,1.79362
4681.03841,1.79431
4680.00870,1.79499
4678.97900,1.79567
4677.94929,1.79633
4676.91959,1.79698
4675.88988,1.79761
4674.86018,1.79821
4673.83047,1.79878
4672.80077,1.79933
4671.77106,1.79985
4670.74136,1.80032
4669.71165,1.80073
4668.68195,1.80107
4667.65224,1.80135
4666.62254,1.80157
4665.59283,1.80172
4664.56313,1.80181
4663.53342,1.80183
4662.50372,1.80180
4661.47401,1.80171
4660.44431,1.80158
4659.41460,1.80141
4658.38490,1.80118
4657.35520,1.80091
4656.32549,1.80060
4655.29579,1.80026
4654.26608,1.79989
4653.23638,1.79951
4652.20667,1.79912
4651.17697,1.79875
4650.14726,1.79841
4649.11756,1.79810
4648.08785,1.79782
4647.05815,1.79756
4646.02844,1.79730
4644.99874,1.79705
4643.96903,1.79680
4642.93933,1.79656
4641.90962,1.79633
4640.87992,1.79612
4639.85021,1.79593
4638.82051,1.79576
4637.79080,1.79562
4636.76110,1.79550
4635.73139,1.79541
4634.70169,1.79533
4633.67198,1.79527
4632.64228,1.79522
4631.61257,1.79519
4630.58287,1.79518
4629.55316,1.79518
4628.52346,1.79521
4627.49375,1.79526
4626.46405,1.79533
4625.43434,1.79541
4624.40464,1.79548
4623.37493,1.79555
4622.34523,1.79560
4621.31552,1.79562
4620.28582,1.79560
4619.25611,1.79556
4618.22641,1.79549
4617.19670,1.79539
4616.16700,1.79527
4615.13729,1.79513
4614.10759,1.79498
4613.07789,1.79481
4612.04818,1.79465
4611.01848,1.79448
4609.98877,1.79433
4608.95907,1.79420
4607.92936,1.79410
4606.89966,1.79402
4605.86995,1.79397
4604.84025,1.79396
4603.81054,1.79399
4602.78084,1.79404
4601.75113,1.79412
4600.72143,1.79422
4599.69172,1.79433
4598.66202,1.79445
4597.63231,1.79456
4596.60261,1.79465
4595.57290,1.79472
4594.54320,1.79475
4593.51349,1.79475
4592.48379,1.79471
4591.45408,1.79465
4590.42438,1.79456
4589.39467,1.79447
4588.36497,1.79437
4587.33526,1.79429
4586.30556,1.79422
4585.27585,1.79417
4584.24615,1.79416
4583.21644,1.79418
4582.18674,1.79422
4581.15703,1.79430
4580.12733,1.79442
4579.09762,1.79457
4578.06792,1.79477
4577.03821,1.79501
4576.00851,1.79529
4574.97880,1.79560
4573.94910,1.79595
4572.91939,1.79632
4571.88969,1.79669
4570.85998,1.79707
4569.83028,1.79745
4568.80058,1.79783
4567.77087,1.79822
4566.74117,1.79860
4565.71146,1.79898
4564.68176,1.79934
4563.65205,1.79969
4562.62235,1.80001
4561.59264,1.80029
4560.56294,1.80050
4559.53323,1.80064
4558.50353,1.80071
4557.47382,1.80069
4556.44412,1.80060
4555.41441,1.80045
4554.38471,1.80025
4553.35500,1.80001
4552.32530,1.79974
4551.29559,1.79944
4550.26589,1.79913
4549.23618,1.79881
4548.20648,1.79849
4547.17677,1.79817
4546.14707,1.79788
4545.11736,1.79763
4544.08766,1.79743
4543.05795,1.79728
4542.02825,1.79718
4540.99854,1.79715
4539.96884,1.79717
4538.93913,1.79724
4537.90943,1.79735
4536.87972,1.79748
4535.85002,1.79765
4534.82031,1.79784
4533.79061,1.79807
4532.76090,1.79834
4531.73120,1.79866
4530.70149,1.79901
4529.67179,1.79940
4528.64208,1.79981
4527.61238,1.80025
4526.58267,1.80070
4525.55297,1.80116
4524.52326,1.80162
4523.49356,1.80207
4522.46386,1.80248
4521.43415,1.80286
4520.40445,1.80319
4519.37474,1.80345
4518.34504,1.80365
4517.31533,1.80377
4516.28563,1.80381
4515.25592,1.80377
4514.22622,1.80364
4513.19651,1.80344
4512.16681,1.80319
4511.13710,1.80291
4510.10740,1.80261
4509.07769,1.80233
4508.04799,1.80207
4507.01828,1.80186
4505.98858,1.80170
4504.95887,1.80163
4503.92917,1.80164
4502.89946,1.80175
4501.86976,1.80197
4500.84005,1.80227
4499.81035,1.80266
4498.78064,1.80310
4497.75094,1.80359
4496.72123,1.80410
4495.69153,1.80464
4494.66182,1.80518
4493.63212,1.80572
4492.60241,1.80623
4491.57271,1.80670
4490.54300,1.80712
4489.51330,1.80752
4488.48359,1.80791
4487.45389,1.80828
4486.42418,1.80866
4485.39448,1.80905
4484.36477,1.80945
4483.33507,1.80988
4482.30536,1.81034
4481.27566,1.81085
4480.24595,1.81141
4479.21625,1.81203
4478.18655,1.81269
4477.15684,1.81340
4476.12714,1.81412
4475.09743,1.81486
4474.06773,1.81558
4473.03802,1.81629
4472.00832,1.81698
4470.97861,1.81764
4469.94891,1.81826
4468.91920,1.81883
4467.88950,1.81935
4466.85979,1.81982
4465.83009,1.82026
4464.80038,1.82070
4463.77068,1.82113
4462.74097,1.82155
4461.71127,1.82198
4460.68156,1.82242
4459.65186,1.82288
4458.62215,1.82337
4457.59245,1.82393
4456.56274,1.82455
4455.53304,1.82523
4454.50333,1.82599
4453.47363,1.82681
4452.44392,1.82770
4451.41422,1.82864
4450.38451,1.82964
4449.35481,1.83070
4448.32510,1.83182
4447.29540,1.83300
4446.26569,1.83424
4445.23599,1.83553
4444.20628,1.83687
4443.17658,1.83828
4442.14687,1.83977
4441.11717,1.84133
4440.08746,1.84296
4439.05776,1.84465
4438.02805,1.84638
4436.99835,1.84815
4435.96864,1.84997
4434.93894,1.85182
4433.90924,1.85371
4432.87953,1.85562
4431.84983,1.85754
4430.82012,1.85945
4429.79042,1.86135
4428.76071,1.86323
4427.73101,1.86508
4426.70130,1.86690
4425.67160,1.86868
4424.64189,1.87043
4423.61219,1.87215
4422.58248,1.87382
4421.55278,1.87546
4420.52307,1.87707
4419.49337,1.87865
4418.46366,1.88021
4417.43396,1.88174
4416.40425,1.88324
4415.37455,1.88469
4414.34484,1.88611
4413.31514,1.88750
4412.28543,1.88885
4411.25573,1.89018
4410.22602,1.89148
4409.19632,1.89275
4408.16661,1.89399
4407.13691,1.89522
4406.10720,1.89643
4405.07750,1.89763
4404.04779,1.89883
4403.01809,1.90004
4401.98838,1.90126
4400.95868,1.90249
4399.92897,1.90373
4398.89927,1.90499
4397.86956,1.90626
4396.83986,1.90755
4395.81015,1.90887
4394.78045,1.91020
4393.75074,1.91153
4392.72104,1.91286
4391.69133,1.91419
4390.66163,1.91552
4389.63193,1.91685
4388.60222,1.91818
4387.57252,1.91949
4386.54281,1.92080
4385.51311,1.92208
4384.48340,1.92337
4383.45370,1.92465
4382.42399,1.92593
4381.39429,1.92721
4380.36458,1.92848
4379.33488,1.92975
4378.30517,1.93103
4377.27547,1.93231
4376.24576,1.93360
4375.21606,1.93492
4374.18635,1.93626
4373.15665,1.93764
4372.12694,1.93906
4371.09724,1.94052
4370.06753,1.94203
4369.03783,1.94359
4368.00812,1.94520
4366.97842,1.94685
4365.94871,1.94853
4364.91901,1.95024
4363.88930,1.95197
4362.85960,1.95372
4361.82989,1.95548
4360.80019,1.95726
4359.77048,1.95906
4358.74078,1.96087
4357.71107,1.96268
4356.68137,1.96449
4355.65166,1.96629
4354.62196,1.96810
4353.59225,1.96991
4352.56255,1.97173
4351.53284,1.97356
4350.50314,1.97539
4349.47343,1.97722
4348.44373,1.97905
4347.41402,1.98088
4346.38432,1.98270
4345.35461,1.98451
4344.32491,1.98628
4343.29521,1.98801
4342.26550,1.98968
4341.23580,1.99127
4340.20609,1.99278
4339.17639,1.99420
4338.14668,1.99553
4337.11698,1.99675
4336.08727,1.99785
4335.05757,1.99882
4334.02786,1.99962
4332.99816,2.00025
4331.96845,2.00069
4330.93875,2.00093
4329.90904,2.00094
4328.87934,2.00071
4327.84963,2.00022
4326.81993,1.99945
4325.79022,1.99840
4324.76052,1.99706
4323.73081,1.99543
4322.70111,1.99353
4321.67140,1.99139
4320.64170,1.98902
4319.61199,1.98646
4318.58229,1.98375
4317.55258,1.98093
4316.52288,1.97806
4315.49317,1.97519
4314.46347,1.97238
4313.43376,1.96964
4312.40406,1.96703
4311.37435,1.96457
4310.34465,1.96229
4309.31494,1.96020
4308.28524,1.95833
4307.25553,1.95666
4306.22583,1.95519
4305.19612,1.95392
4304.16642,1.95283
4303.13671,1.95190
4302.10701,1.95111
4301.07730,1.95044
4300.04760,1.94988
4299.01790,1.94942
4297.98819,1.94906
4296.95849,1.94879
4295.92878,1.94862
4294.89908,1.94855
4293.86937,1.94858
4292.83967,1.94873
4291.80996,1.94901
4290.78026,1.94940
4289.75055,1.94991
4288.72085,1.95053
4287.69114,1.95127
4286.66144,1.95211
4285.63173,1.95306
4284.60203,1.95410
4283.57232,1.95521
4282.54262,1.95639
4281.51291,1.95762
4280.48321,1.95889
4279.45350,1.96020
4278.42380,1.96153
4277.39409,1.96288
4276.36439,1.96422
4275.33468,1.96559
4274.30498,1.96698
4273.27527,1.96840
4272.24557,1.96986
4271.21586,1.97136
4270.18616,1.97290
4269.15645,1.97449
4268.12675,1.97610
4267.09704,1.97773
4266.06734,1.97934
4265.03763,1.98093
4264.00793,1.98246
4262.97822,1.98392
4261.94852,1.98528
4260.91881,1.98649
4259.88911,1.98753
4258.85940,1.98835
4257.82970,1.98894
4256.79999,1.98926
4255.77029,1.98929
4254.74059,1.98901
4253.71088,1.98840
4252.68118,1.98746
4251.65147,1.98624
4250.62177,1.98474
4249.59206,1.98302
4248.56236,1.98111
4247.53265,1.97905
4246.50295,1.97688
4245.47324,1.97465
4244.44354,1.97241
4243.41383,1.97019
4242.38413,1.96806
4241.35442,1.96605
4240.32472,1.96420
4239.29501,1.96255
4238.26531,1.96112
4237.23560,1.95994
4236.20590,1.95900
4235.17619,1.95830
4234.14649,1.95784
4233.11678,1.95759
4232.08708,1.95751
4231.05737,1.95759
4230.02767,1.95778
4228.99796,1.95806
4227.96826,1.95840
4226.93855,1.95880
4225.90885,1.95922
4224.87914,1.95965
4223.84944,1.96006
4222.81973,1.96044
4221.79003,1.96078
4220.76032,1.96107
4219.73062,1.96131
4218.70091,1.96151
4217.67121,1.96166
4216.64150,1.96178
4215.61180,1.96187
4214.58209,1.96196
4213.55239,1.96205
4212.52268,1.96216
4211.49298,1.96228
4210.46328,1.96242
4209.43357,1.96257
4208.40387,1.96272
4207.37416,1.96288
4206.34446,1.96303
4205.31475,1.96319
4204.28505,1.96334
4203.25534,1.96349
4202.22564,1.96364
4201.19593,1.96381
4200.16623,1.96399
4199.13652,1.96420
4198.10682,1.96443
4197.07711,1.96470
4196.04741,1.96499
4195.01770,1.96531
4193.98800,1.96567
4192.95829,1.96605
4191.92859,1.96646
4190.89888,1.96689
4189.86918,1.96733
4188.83947,1.96777
4187.80977,1.96819
4186.78006,1.96857
4185.75036,1.96889
4184.72065,1.96914
4183.69095,1.96930
4182.66124,1.96936
4181.63154,1.96932
4180.60183,1.96917
4179.57213,1.96891
4178.54242,1.96857
4177.51272,1.96816
4176.48301,1.96770
4175.45331,1.96720
4174.42360,1.96669
4173.39390,1.96618
4172.36419,1.96568
4171.33449,1.96522
4170.30478,1.96481
4169.27508,1.96446
4168.24537,1.96420
4167.21567,1.96401
4166.18596,1.96391
4165.15626,1.96390
4164.12656,1.96397
4163.09685,1.96411
4162.06715,1.96431
4161.03744,1.96457
4160.00774,1.96485
4158.97803,1.96514
4157.94833,1.96542
4156.91862,1.96567
4155.88892,1.96589
4154.85921,1.96606
4153.82951,1.96616
4152.79980,1.96617
4151.77010,1.96610
4150.74039,1.96593
4149.71069,1.96565
4148.68098,1.96528
4147.65128,1.96481
4146.62157,1.96426
4145.59187,1.96363
4144.56216,1.96295
4143.53246,1.96223
4142.50275,1.96149
4141.47305,1.96075
4140.44334,1.96001
4139.41364,1.95930
4138.38393,1.95861
4137.35423,1.95797
4136.32452,1.95736
4135.29482,1.95681
4134.26511,1.95630
4133.23541,1.95586
4132.20570,1.95550
4131.17600,1.95520
4130.14629,1.95497
4129.11659,1.95480
4128.08688,1.95471
4127.05718,1.95469
4126.02747,1.95475
4124.99777,1.95489
4123.96806,1.95510
4122.93836,1.95537
4121.90865,1.95572
4120.87895,1.95612
4119.84925,1.95656
4118.81954,1.95704
4117.78984,1.95753
4116.76013,1.95801
4115.73043,1.95847
4114.70072,1.95889
4113.67102,1.95925
4112.64131,1.95955
4111.61161,1.95978
4110.58190,1.95993
4109.55220,1.96003
4108.52249,1.96007
4107.49279,1.96007
4106.46308,1.96003
4105.43338,1.95998
4104.40367,1.95992
4103.37397,1.95987
4102.34426,1.95985
4101.31456,1.95985
4100.28485,1.95989
4099.25515,1.95996
4098.22544,1.96007
4097.19574,1.96019
4096.16603,1.96033
4095.13633,1.96045
4094.10662,1.96056
4093.07692,1.96063
4092.04721,1.96066
4091.01751,1.96064
4089.98780,1.96054
4088.95810,1.96038
4087.92839,1.96016
4086.89869,1.95989
4085.86898,1.95956
4084.83928,1.95920
4083.80957,1.95882
4082.77987,1.95841
4081.75016,1.95802
4080.72046,1.95764
4079.69075,1.95729
4078.66105,1.95699
4077.63134,1.95673
4076.60164,1.95654
4075.57194,1.95642
4074.54223,1.95636
4073.51253,1.95638
4072.48282,1.95646
4071.45312,1.95661
4070.42341,1.95685
4069.39371,1.95715
4068.36400,1.95754
4067.33430,1.95798
4066.30459,1.95847
4065.27489,1.95900
4064.24518,1.95956
4063.21548,1.96014
4062.18577,1.96070
4061.15607,1.96123
4060.12636,1.96171
4059.09666,1.96211
4058.06695,1.96242
4057.03725,1.96264
4056.00754,1.96274
4054.97784,1.96272
4053.94813,1.96258
4052.91843,1.96234
4051.88872,1.96200
4050.85902,1.96159
4049.82931,1.96112
4048.79961,1.96064
4047.76990,1.96015
4046.74020,1.95971
4045.71049,1.95934
4044.68079,1.95907
4043.65108,1.95890
4042.62138,1.95886
4041.59167,1.95896
4040.56197,1.95919
4039.53226,1.95956
4038.50256,1.96004
4037.47285,1.96060
4036.44315,1.96123
4035.41344,1.96191
4034.38374,1.96260
4033.35403,1.96327
4032.32433,1.96390
4031.29463,1.96447
4030.26492,1.96495
4029.23522,1.96534
4028.20551,1.96563
4027.17581,1.96582
4026.14610,1.96592
4025.11640,1.96591
4024.08669,1.96582
4023.05699,1.96564
4022.02728,1.96539
4020.99758,1.96508
4019.96787,1.96473
4018.93817,1.96436
4017.90846,1.96399
4016.87876,1.96362
4015.84905,1.96328
4014.81935,1.96295
4013.78964,1.96265
4012.75994,1.96237
4011.73023,1.96212
4010.70053,1.96191
4009.67082,1.96171
4008.64112,1.96153
4007.61141,1.96137
4006.58171,1.96122
4005.55200,1.96108
4004.52230,1.96095
4003.49259,1.96084
4002.46289,1.96073
4001.43318,1.96060
4000.40348,1.96044
3999.37377,1.96025
3998.34407,1.96002
3997.31436,1.95975
3996.28466,1.95945
3995.25495,1.95912
3994.22525,1.95877
3993.19554,1.95842
3992.16584,1.95806
3991.13613,1.95770
3990.10643,1.95736
3989.07672,1.95703
3988.04702,1.95673
3987.01731,1.95646
3985.98761,1.95623
3984.95791,1.95605
3983.92820,1.95592
3982.89850,1.95585
3981.86879,1.95584
3980.83909,1.95590
3979.80938,1.95601
3978.77968,1.95617
3977.74997,1.95635
3976.72027,1.95654
3975.69056,1.95673
3974.66086,1.95693
3973.63115,1.95712
3972.60145,1.95731
3971.57174,1.95750
3970.54204,1.95767
3969.51233,1.95783
3968.48263,1.95799
3967.45292,1.95813
3966.42322,1.95826
3965.39351,1.95838
3964.36381,1.95848
3963.33410,1.95858
3962.30440,1.95866
3961.27469,1.95871
3960.24499,1.95874
3959.21528,1.95876
3958.18558,1.95874
3957.15587,1.95868
3956.12617,1.95857
3955.09646,1.95840
3954.06676,1.95817
3953.03705,1.95790
3952.00735,1.95757
3950.97764,1.95721
3949.94794,1.95682
3948.91823,1.95641
3947.88853,1.95601
3946.85882,1.95562
3945.82912,1.95527
3944.79941,1.95498
3943.76971,1.95477
3942.74000,1.95465
3941.71030,1.95463
3940.68060,1.95470
3939.65089,1.95485
3938.62119,1.95509
3937.59148,1.95540
3936.56178,1.95576
3935.53207,1.95616
3934.50237,1.95657
3933.47266,1.95694
3932.44296,1.95725
3931.41325,1.95748
3930.38355,1.95762
3929.35384,1.95764
3928.32414,1.95755
3927.29443,1.95732
3926.26473,1.95697
3925.23502,1.95650
3924.20532,1.95594
3923.17561,1.95530
3922.14591,1.95462
3921.11620,1.95392
3920.08650,1.95324
3919.05679,1.95259
3918.02709,1.95200
3916.99738,1.95145
3915.96768,1.95098
3914.93797,1.95057
3913.90827,1.95024
3912.87856,1.94996
3911.84886,1.94974
3910.81915,1.94956
3909.78945,1.94941
3908.75974,1.94926
3907.73004,1.94910
3906.70033,1.94893
3905.67063,1.94874
3904.64092,1.94853
3903.61122,1.94831
3902.58151,1.94807
3901.55181,1.94784
3900.52210,1.94761
3899.49240,1.94738
3898.46269,1.94718
3897.43299,1.94703
3896.40329,1.94691
3895.37358,1.94684
3894.34388,1.94679
3893.31417,1.94675
3892.28447,1.94670
3891.25476,1.94665
3890.22506,1.94658
3889.19535,1.94648
3888.16565,1.94635
3887.13594,1.94621
3886.10624,1.94604
3885.07653,1.94582
3884.04683,1.94556
3883.01712,1.94526
3881.98742,1.94493
3880.95771,1.94459
3879.92801,1.94426
3878.89830,1.94394
3877.86860,1.94364
3876.83889,1.94336
3875.80919,1.94311
3874.77948,1.94290
3873.74978,1.94274
3872.72007,1.94263
3871.69037,1.94253
3870.66066,1.94245
3869.63096,1.94235
3868.60125,1.94226
3867.57155,1.94217
3866.54184,1.94209
3865.51214,1.94206
3864.48243,1.94206
3863.45273,1.94209
3862.42302,1.94214
3861.39332,1.94219
3860.36361,1.94226
3859.33391,1.94233
3858.30420,1.94244
3857.27450,1.94260
3856.24479,1.94282
3855.21509,1.94311
3854.18538,1.94344
3853.15568,1.94381
3852.12598,1.94422
3851.09627,1.94464
3850.06657,1.94505
3849.03686,1.94544
3848.00716,1.94577
3846.97745,1.94602
3845.94775,1.94616
3844.91804,1.94621
3843.88834,1.94616
3842.85863,1.94604
3841.82893,1.94584
3840.79922,1.94557
3839.76952,1.94521
3838.73981,1.94477
3837.71011,1.94429
3836.68040,1.94379
3835.65070,1.94332
3834.62099,1.94292
3833.59129,1.94263
3832.56158,1.94247
3831.53188,1.94247
3830.50217,1.94260
3829.47247,1.94287
3828.44276,1.94326
3827.41306,1.94376
3826.38335,1.94434
3825.35365,1.94498
3824.32394,1.94562
3823.29424,1.94624
3822.26453,1.94683
3821.23483,1.94736
3820.20512,1.94784
3819.17542,1.94827
3818.14571,1.94864
3817.11601,1.94893
3816.08630,1.94916
3815.05660,1.94933
3814.02689,1.94946
3812.99719,1.94960
3811.96748,1.94974
3810.93778,1.94990
3809.90807,1.95007
3808.87837,1.95025
3807.84866,1.95044
3806.81896,1.95061
3805.78926,1.95074
3804.75955,1.95082
3803.72985,1.95085
3802.70014,1.95081
3801.67044,1.95068
3800.64073,1.95045
3799.61103,1.95013
3798.58132,1.94974
3797.55162,1.94930
3796.52191,1.94885
3795.49221,1.94840
3794.46250,1.94799
3793.43280,1.94762
3792.40309,1.94733
3791.37339,1.94714
3790.34368,1.94708
3789.31398,1.94716
3788.28427,1.94737
3787.25457,1.94769
3786.22486,1.94811
3785.19516,1.94862
3784.16545,1.94919
3783.13575,1.94980
3782.10604,1.95042
3781.07634,1.95104
3780.04663,1.95163
3779.01693,1.95217
3777.98722,1.95265
3776.95752,1.95305
3775.92781,1.95338
3774.89811,1.95365
3773.86840,1.95385
3772.83870,1.95400
3771.80899,1.95413
3770.77929,1.95425
3769.74958,1.95438
3768.71988,1.95452
3767.69017,1.95469
3766.66047,1.95491
3765.63076,1.95518
3764.60106,1.95550
3763.57135,1.95588
3762.54165,1.95630
3761.51195,1.95677
3760.48224,1.95727
3759.45254,1.95777
3758.42283,1.95829
3757.39313,1.95880
3756.36342,1.95931
3755.33372,1.95979
3754.30401,1.96023
3753.27431,1.96062
3752.24460,1.96094
3751.21490,1.96119
3750.18519,1.96137
3749.15549,1.96149
3748.12578,1.96156
3747.09608,1.96162
3746.06637,1.96166
3745.03667,1.96171
3744.00696,1.96176
3742.97726,1.96184
3741.94755,1.96196
3740.91785,1.96214
3739.88814,1.96240
3738.85844,1.96276
3737.82873,1.96322
3736.79903,1.96381
3735.76932,1.96454
3734.73962,1.96543
3733.70991,1.96647
3732.68021,1.96767
3731.65050,1.96900
3730.62080,1.97043
3729.59109,1.97193
3728.56139,1.97347
3727.53168,1.97502
3726.50198,1.97657
3725.47227,1.97810
3724.44257,1.97959
3723.41286,1.98105
3722.38316,1.98244
3721.35345,1.98375
3720.32375,1.98494
3719.29404,1.98600
3718.26434,1.98693
3717.23464,1.98776
3716.20493,1.98851
3715.17523,1.98922
3714.14552,1.98994
3713.11582,1.99072
3712.08611,1.99160
3711.05641,1.99265
3710.02670,1.99388
3708.99700,1.99534
3707.96729,1.99702
3706.93759,1.99893
3705.90788,2.00107
3704.87818,2.00343
3703.84847,2.00602
3702.81877,2.00883
3701.78906,2.01185
3700.75936,2.01505
3699.72965,2.01841
3698.69995,2.02188
3697.67024,2.02541
3696.64054,2.02895
3695.61083,2.03246
3694.58113,2.03591
3693.55142,2.03929
3692.52172,2.04258
3691.49201,2.04581
3690.46231,2.04899
3689.43260,2.05213
3688.40290,2.05524
3687.37319,2.05834
3686.34349,2.06146
3685.31378,2.06456
3684.28408,2.06766
3683.25437,2.07072
3682.22467,2.07375
3681.19496,2.07672
3680.16526,2.07965
3679.13555,2.08253
3678.10585,2.08535
3677.07614,2.08811
3676.04644,2.09081
3675.01673,2.09348
3673.98703,2.09610
3672.95733,2.09870
3671.92762,2.10130
3670.89792,2.10391
3669.86821,2.10658
3668.83851,2.10935
3667.80880,2.11227
3666.77910,2.11538
3665.74939,2.11872
3664.71969,2.12228
3663.68998,2.12607
3662.66028,2.13009
3661.63057,2.13428
3660.60087,2.13860
3659.57116,2.14300
3658.54146,2.14741
3657.51175,2.15175
3656.48205,2.15596
3655.45234,2.15997
3654.42264,2.16373
3653.39293,2.16719
3652.36323,2.17033
3651.33352,2.17312
3650.30382,2.17557
3649.27411,2.17768
3648.24441,2.17945
3647.21470,2.18093
3646.18500,2.18217
3645.15529,2.18322
3644.12559,2.18418
3643.09588,2.18511
3642.06618,2.18609
3641.03647,2.18717
3640.00677,2.18839
3638.97706,2.18980
3637.94736,2.19143
3636.91765,2.19328
3635.88795,2.19533
3634.85824,2.19758
3633.82854,2.19999
3632.79883,2.20251
3631.76913,2.20512
3630.73942,2.20778
3629.70972,2.21045
3628.68001,2.21307
3627.65031,2.21560
3626.62061,2.21799
3625.59090,2.22022
3624.56120,2.22222
3623.53149,2.22400
3622.50179,2.22553
3621.47208,2.22684
3620.44238,2.22794
3619.41267,2.22887
3618.38297,2.22967
3617.35326,2.23036
3616.32356,2.23098
3615.29385,2.23155
3614.26415,2.23210
3613.23444,2.23263
3612.20474,2.23316
3611.17503,2.23370
3610.14533,2.23426
3609.11562,2.23486
3608.08592,2.23550
3607.05621,2.23619
3606.02651,2.23691
3604.99680,2.23765
3603.96710,2.23840
3602.93739,2.23916
3601.90769,2.23990
3600.87798,2.24060
3599.84828,2.24124
3598.81857,2.24182
3597.78887,2.24234
3596.75916,2.24281
3595.72946,2.24324
3594.69975,2.24365
3593.67005,2.24403
3592.64034,2.24439
3591.61064,2.24472
3590.58093,2.24502
3589.55123,2.24530
3588.52152,2.24556
3587.49182,2.24581
3586.46211,2.24606
3585.43241,2.24633
3584.40270,2.24664
3583.37300,2.24698
3582.34330,2.24736
3581.31359,2.24778
3580.28389,2.24826
3579.25418,2.24880
3578.22448,2.24938
3577.19477,2.24996
3576.16507,2.25053
3575.13536,2.25108
3574.10566,2.25159
3573.07595,2.25207
3572.04625,2.25250
3571.01654,2.25287
3569.98684,2.25317
3568.95713,2.25339
3567.92743,2.25352
3566.89772,2.25356
3565.86802,2.25352
3564.83831,2.25340
3563.80861,2.25322
3562.77890,2.25299
3561.74920,2.25272
3560.71949,2.25242
3559.68979,2.25211
3558.66008,2.25179
3557.63038,2.25148
3556.60067,2.25119
3555.57097,2.25090
3554.54126,2.25061
3553.51156,2.25030
3552.48185,2.24996
3551.45215,2.24962
3550.42244,2.24927
3549.39274,2.24893
3548.36303,2.24860
3547.33333,2.24828
3546.30362,2.24800
3545.27392,2.24774
3544.24421,2.24754
3543.21451,2.24740
3542.18480,2.24735
3541.15510,2.24738
3540.12539,2.24750
3539.09569,2.24772
3538.06599,2.24802
3537.03628,2.24841
3536.00658,2.24889
3534.97687,2.24946
3533.94717,2.25009
3532.91746,2.25076
3531.88776,2.25143
3530.85805,2.25208
3529.82835,2.25267
3528.79864,2.25320
3527.76894,2.25366
3526.73923,2.25403
3525.70953,2.25431
3524.67982,2.25450
3523.65012,2.25459
3522.62041,2.25458
3521.59071,2.25448
3520.56100,2.25433
3519.53130,2.25414
3518.50159,2.25391
3517.47189,2.25365
3516.44218,2.25339
3515.41248,2.25312
3514.38277,2.25289
3513.35307,2.25272
3512.32336,2.25262
3511.29366,2.25262
3510.26395,2.25272
3509.23425,2.25291
3508.20454,2.25318
3507.17484,2.25351
3506.14513,2.25389
3505.11543,2.25433
3504.08572,2.25480
3503.05602,2.25529
3502.02631,2.25579
3500.99661,2.25626
3499.96690,2.25672
3498.93720,2.25714
3497.90749,2.25752
3496.87779,2.25788
3495.84808,2.25819
3494.81838,2.25844
3493.78868,2.25859
3492.75897,2.25865
3491.72927,2.25860
3490.69956,2.25846
3489.66986,2.25825
3488.64015,2.25798
3487.61045,2.25768
3486.58074,2.25734
3485.55104,2.25698
3484.52133,2.25661
3483.49163,2.25625
3482.46192,2.25590
3481.43222,2.25559
3480.40251,2.25533
3479.37281,2.25512
3478.34310,2.25497
3477.31340,2.25490
3476.28369,2.25490
3475.25399,2.25499
3474.22428,2.25517
3473.19458,2.25541
3472.16487,2.25569
3471.13517,2.25596
3470.10546,2.25618
3469.07576,2.25631
3468.04605,2.25633
3467.01635,2.25622
3465.98664,2.25599
3464.95694,2.25564
3463.92723,2.25516
3462.89753,2.25457
3461.86782,2.25387
3460.83812,2.25309
3459.80841,2.25225
3458.77871,2.25139
3457.74900,2.25055
3456.71930,2.24976
3455.68959,2.24907
3454.65989,2.24849
3453.63018,2.24805
3452.60048,2.24777
3451.57077,2.24766
3450.54107,2.24772
3449.51136,2.24794
3448.48166,2.24829
3447.45196,2.24873
3446.42225,2.24923
3445.39255,2.24976
3444.36284,2.25030
3443.33314,2.25083
3442.30343,2.25132
3441.27373,2.25175
3440.24402,2.25209
3439.21432,2.25234
3438.18461,2.25247
3437.15491,2.25248
3436.12520,2.25238
3435.09550,2.25218
3434.06579,2.25189
3433.03609,2.25153
3432.00638,2.25111
3430.97668,2.25064
3429.94697,2.25012
3428.91727,2.24956
3427.88756,2.24897
3426.85786,2.24837
3425.82815,2.24776
3424.79845,2.24716
3423.76874,2.24658
3422.73904,2.24602
3421.70933,2.24550
3420.67963,2.24501
3419.64992,2.24457
3418.62022,2.24417
3417.59051,2.24378
3416.56081,2.24342
3415.53110,2.24308
3414.50140,2.24275
3413.47169,2.24243
3412.44199,2.24211
3411.41228,2.24181
3410.38258,2.24153
3409.35287,2.24127
3408.32317,2.24102
3407.29346,2.24078
3406.26376,2.24054
3405.23405,2.24030
3404.20435,2.24006
3403.17465,2.23984
3402.14494,2.23963
3401.11524,2.23945
3400.08553,2.23930
3399.05583,2.23919
3398.02612,2.23913
3396.99642,2.23910
3395.96671,2.23910
3394.93701,2.23913
3393.90730,2.23918
3392.87760,2.23925
3391.84789,2.23935
3390.81819,2.23945
3389.78848,2.23955
3388.75878,2.23966
3387.72907,2.23977
3386.69937,2.23988
3385.66966,2.23997
3384.63996,2.24004
3383.61025,2.24005
3382.58055,2.24000
3381.55084,2.23985
3380.52114,2.23961
3379.49143,2.23927
3378.46173,2.23882
3377.43202,2.23827
3376.40232,2.23763
3375.37261,2.23691
3374.34291,2.23612
3373.31320,2.23528
3372.28350,2.23442
3371.25379,2.23355
3370.22409,2.23269
3369.19438,2.23187
3368.16468,2.23111
3367.13497,2.23043
3366.10527,2.22985
3365.07556,2.22938
3364.04586,2.22903
3363.01615,2.22880
3361.98645,2.22868
3360.95674,2.22865
3359.92704,2.22868
3358.89734,2.22874
3357.86763,2.22881
3356.83793,2.22887
3355.80822,2.22892
3354.77852,2.22893
3353.74881,2.22890
3352.71911,2.22884
3351.68940,2.22874
3350.65970,2.22862
3349.62999,2.22847
3348.60029,2.22832
3347.57058,2.22815
3346.54088,2.22798
3345.51117,2.22780
3344.48147,2.22764
3343.45176,2.22749
3342.42206,2.22738
3341.39235,2.22731
3340.36265,2.22727
3339.33294,2.22725
3338.30324,2.22726
3337.27353,2.22726
3336.24383,2.22726
3335.21412,2.22724
3334.18442,2.22719
3333.15471,2.22713
3332.12501,2.22705
3331.09530,2.22697
3330.06560,2.22688
3329.03589,2.22679
3328.00619,2.22670
3326.97648,2.22662
3325.94678,2.22653
3324.91707,2.22642
3323.88737,2.22630
3322.85766,2.22616
3321.82796,2.22599
3320.79825,2.22578
3319.76855,2.22556
3318.73884,2.22531
3317.70914,2.22504
3316.67943,2.22475
3315.64973,2.22443
3314.62003,2.22409
3313.59032,2.22374
3312.56062,2.22337
3311.53091,2.22301
3310.50121,2.22266
3309.47150,2.22236
3308.44180,2.22211
3307.41209,2.22194
3306.38239,2.22184
3305.35268,2.22183
3304.32298,2.22189
3303.29327,2.22201
3302.26357,2.22218
3301.23386,2.22239
3300.20416,2.22264
3299.17445,2.22290
3298.14475,2.22315
3297.11504,2.22339
3296.08534,2.22359
3295.05563,2.22376
3294.02593,2.22387
3292.99622,2.22393
3291.96652,2.22392
3290.93681,2.22384
3289.90711,2.22372
3288.87740,2.22355
3287.84770,2.22335
3286.81799,2.22315
3285.78829,2.22297
3284.75858,2.22282
3283.72888,2.22271
3282.69917,2.22266
3281.66947,2.22266
3280.63976,2.22271
3279.61006,2.22280
3278.58035,2.22293
3277.55065,2.22310
3276.52094,2.22329
3275.49124,2.22348
3274.46153,2.22367
3273.43183,2.22382
3272.40212,2.22393
3271.37242,2.22399
3270.34271,2.22398
3269.31301,2.22391
3268.28331,2.22377
3267.25360,2.22356
3266.22390,2.22330
3265.19419,2.22299
3264.16449,2.22265
3263.13478,2.22231
3262.10508,2.22197
3261.07537,2.22165
3260.04567,2.22135
3259.01596,2.22107
3257.98626,2.22082
3256.95655,2.22058
3255.92685,2.22036
3254.89714,2.22015
3253.86744,2.21997
3252.83773,2.21980
3251.80803,2.21963
3250.77832,2.21947
3249.74862,2.21929
3248.71891,2.21911
3247.68921,2.21892
3246.65950,2.21873
3245.62980,2.21854
3244.60009,2.21836
3243.57039,2.21820
3242.54068,2.21808
3241.51098,2.21799
3240.48127,2.21795
3239.45157,2.21797
3238.42186,2.21804
3237.39216,2.21816
3236.36245,2.21832
3235.33275,2.21850
3234.30304,2.21868
3233.27334,2.21886
3232.24363,2.21902
3231.21393,2.21915
3230.18422,2.21924
3229.15452,2.21928
3228.12481,2.21925
3227.09511,2.21914
3226.06540,2.21895
3225.03570,2.21868
3224.00600,2.21834
3222.97629,2.21793
3221.94659,2.21747
3220.91688,2.21697
3219.88718,2.21645
3218.85747,2.21592
3217.82777,2.21539
3216.79806,2.21488
3215.76836,2.21441
3214.73865,2.21399
3213.70895,2.21362
3212.67924,2.21332
3211.64954,2.21309
3210.61983,2.21293
3209.59013,2.21286
3208.56042,2.21285
3207.53072,2.21291
3206.50101,2.21304
3205.47131,2.21320
3204.44160,2.21341
3203.41190,2.21363
3202.38219,2.21388
3201.35249,2.21414
3200.32278,2.21442
3199.29308,2.21471
3198.26337,2.21500
3197.23367,2.21526
3196.20396,2.21550
3195.17426,2.21569
3194.14455,2.21584
3193.11485,2.21594
3192.08514,2.21599
3191.05544,2.21601
3190.02573,2.21598
3188.99603,2.21591
3187.96632,2.21581
3186.93662,2.21568
3185.90691,2.21552
3184.87721,2.21534
3183.84750,2.21512
3182.81780,2.21487
3181.78809,2.21460
3180.75839,2.21432
3179.72869,2.21403
3178.69898,2.21376
3177.66928,2.21350
3176.63957,2.21328
3175.60987,2.21310
3174.58016,2.21293
3173.55046,2.21277
3172.52075,2.21261
3171.49105,2.21244
3170.46134,2.21227
3169.43164,2.21210
3168.40193,2.21193
3167.37223,2.21176
3166.34252,2.21158
3165.31282,2.21141
3164.28311,2.21124
3163.25341,2.21108
3162.22370,2.21092
3161.19400,2.21077
3160.16429,2.21062
3159.13459,2.21049
3158.10488,2.21038
3157.07518,2.21033
3156.04547,2.21033
3155.01577,2.21039
3153.98606,2.21052
3152.95636,2.21071
3151.92665,2.21096
3150.89695,2.21124
3149.86724,2.21155
3148.83754,2.21186
3147.80783,2.21217
3146.77813,2.21247
3145.74842,2.21275
3144.71872,2.21300
3143.68901,2.21321
3142.65931,2.21336
3141.62960,2.21347
3140.59990,2.21351
3139.57019,2.21350
3138.54049,2.21344
3137.51078,2.21333
3136.48108,2.21316
3135.45138,2.21297
3134.42167,2.21277
3133.39197,2.21258
3132.36226,2.21241
3131.33256,2.21225
3130.30285,2.21212
3129.27315,2.21200
3128.24344,2.21190
3127.21374,2.21179
3126.18403,2.21169
3125.15433,2.21158
3124.12462,2.21146
3123.09492,2.21132
3122.06521,2.21116
3121.03551,2.21096
3120.00580,2.21075
3118.97610,2.21050
3117.94639,2.21024
3116.91669,2.20996
3115.88698,2.20967
3114.85728,2.20938
3113.82757,2.20911
3112.79787,2.20885
3111.76816,2.20863
3110.73846,2.20847
3109.70875,2.20838
3108.67905,2.20836
3107.64934,2.20841
3106.61964,2.20852
3105.58993,2.20871
3104.56023,2.20895
3103.53052,2.20924
3102.50082,2.20957
3101.47111,2.20994
3100.44141,2.21032
3099.41170,2.21071
3098.38200,2.21108
3097.35229,2.21142
3096.32259,2.21171
3095.29288,2.21197
3094.26318,2.21217
3093.23347,2.21233
3092.20377,2.21243
3091.17406,2.21247
3090.14436,2.21247
3089.11466,2.21241
3088.08495,2.21233
3087.05525,2.21221
3086.02554,2.21209
3084.99584,2.21196
3083.96613,2.21184
3082.93643,2.21174
3081.90672,2.21168
3080.87702,2.21165
3079.84731,2.21166
3078.81761,2.21171
3077.78790,2.21180
3076.75820,2.21193
3075.72849,2.21209
3074.69879,2.21228
3073.66908,2.21250
3072.63938,2.21273
3071.60967,2.21299
3070.57997,2.21328
3069.55026,2.21359
3068.52056,2.21393
3067.49085,2.21430
3066.46115,2.21468
3065.43144,2.21509
3064.40174,2.21551
3063.37203,2.21594
3062.34233,2.21637
3061.31262,2.21681
3060.28292,2.21724
3059.25321,2.21766
3058.22351,2.21806
3057.19380,2.21843
3056.16410,2.21875
3055.13439,2.21901
3054.10469,2.21921
3053.07498,2.21934
3052.04528,2.21940
3051.01557,2.21939
3049.98587,2.21931
3048.95616,2.21919
3047.92646,2.21902
3046.89675,2.21884
3045.86705,2.21866
3044.83735,2.21850
3043.80764,2.21837
3042.77794,2.21828
3041.74823,2.21825
3040.71853,2.21827
3039.68882,2.21836
3038.65912,2.21852
3037.62941,2.21874
3036.59971,2.21902
3035.57000,2.21935
3034.54030,2.21972
3033.51059,2.22011
3032.48089,2.22050
3031.45118,2.22089
3030.42148,2.22126
3029.39177,2.22160
3028.36207,2.22190
3027.33236,2.22217
3026.30266,2.22241
3025.27295,2.22261
3024.24325,2.22280
3023.21354,2.22297
3022.18384,2.22315
3021.15413,2.22335
3020.12443,2.22359
3019.09472,2.22386
3018.06502,2.22418
3017.03531,2.22456
3016.00561,2.22499
3014.97590,2.22549
3013.94620,2.22605
3012.91649,2.22666
3011.88679,2.22732
3010.85708,2.22802
3009.82738,2.22875
3008.79767,2.22949
3007.76797,2.23023
3006.73826,2.23098
3005.70856,2.23172
3004.67885,2.23245
3003.64915,2.23318
3002.61944,2.23389
3001.58974,2.23462
3000.56004,2.23535
2999.53033,2.23609
2998.50063,2.23687
2997.47092,2.23768
2996.44122,2.23853
2995.41151,2.23944
2994.38181,2.24039
2993.35210,2.24138
2992.32240,2.24241
2991.29269,2.24349
2990.26299,2.24460
2989.23328,2.24575
2988.20358,2.24692
2987.17387,2.24812
2986.14417,2.24933
2985.11446,2.25055
2984.08476,2.25178
2983.05505,2.25302
2982.02535,2.25427
2980.99564,2.25553
2979.96594,2.25681
2978.93623,2.25811
2977.90653,2.25943
2976.87682,2.26077
2975.84712,2.26212
2974.81741,2.26348
2973.78771,2.26483
2972.75800,2.26616
2971.72830,2.26743
2970.69859,2.26865
2969.66889,2.26977
2968.63918,2.27078
2967.60948,2.27168
2966.57977,2.27245
2965.55007,2.27309
2964.52036,2.27359
2963.49066,2.27397
2962.46095,2.27423
2961.43125,2.27440
2960.40154,2.27452
2959.37184,2.27461
2958.34213,2.27473
2957.31243,2.27490
2956.28273,2.27517
2955.25302,2.27557
2954.22332,2.27612
2953.19361,2.27684
2952.16391,2.27774
2951.13420,2.27880
2950.10450,2.28000
2949.07479,2.28133
2948.04509,2.28273
2947.01538,2.28418
2945.98568,2.28562
2944.95597,2.28698
2943.92627,2.28819
2942.89656,2.28917
2941.86686,2.28981
2940.83715,2.29001
2939.80745,2.28963
2938.77774,2.28857
2937.74804,2.28669
2936.71833,2.28387
2935.68863,2.27998
2934.65892,2.27490
2933.62922,2.26855
2932.59951,2.26083
2931.56981,2.25171
2930.54010,2.24116
2929.51040,2.22922
2928.48069,2.21594
2927.45099,2.20145
2926.42128,2.18594
2925.39158,2.16964
2924.36187,2.15284
2923.33217,2.13587
2922.30246,2.11908
2921.27276,2.10285
2920.24305,2.08753
2919.21335,2.07344
2918.18364,2.06089
2917.15394,2.05011
2916.12423,2.04131
2915.09453,2.03459
2914.06482,2.03001
2913.03512,2.02754
2912.00541,2.02711
2910.97571,2.02855
2909.94601,2.03165
2908.91630,2.03617
2907.88660,2.04181
2906.85689,2.04829
2905.82719,2.05530
2904.79748,2.06256
2903.76778,2.06982
2902.73807,2.07686
2901.70837,2.08353
2900.67866,2.08970
2899.64896,2.09533
2898.61925,2.10037
2897.58955,2.10485
2896.55984,2.10878
2895.53014,2.11223
2894.50043,2.11525
2893.47073,2.11792
2892.44102,2.12031
2891.41132,2.12251
2890.38161,2.12457
2889.35191,2.12655
2888.32220,2.12850
2887.29250,2.13046
2886.26279,2.13242
2885.23309,2.13439
2884.20338,2.13637
2883.17368,2.13836
2882.14397,2.14034
2881.11427,2.14232
2880.08456,2.14430
2879.05486,2.14630
2878.02515,2.14835
2876.99545,2.15047
2875.96574,2.15269
2874.93604,2.15501
2873.90633,2.15742
2872.87663,2.15992
2871.84692,2.16244
2870.81722,2.16492
2869.78751,2.16729
2868.75781,2.16943
2867.72810,2.17123
2866.69840,2.17255
2865.66870,2.17325
2864.63899,2.17318
2863.60929,2.17217
2862.57958,2.17009
2861.54988,2.16682
2860.52017,2.16228
2859.49047,2.15645
2858.46076,2.14937
2857.43106,2.14115
2856.40135,2.13194
2855.37165,2.12196
2854.34194,2.11150
2853.31224,2.10083
2852.28253,2.09026
2851.25283,2.08010
2850.22312,2.07064
2849.19342,2.06213
2848.16371,2.05482
2847.13401,2.04887
2846.10430,2.04443
2845.07460,2.04155
2844.04489,2.04025
2843.01519,2.04048
2841.98548,2.04211
2840.95578,2.04498
2839.92607,2.04886
2838.89637,2.05351
2837.86666,2.05870
2836.83696,2.06417
2835.80725,2.06971
2834.77755,2.07515
2833.74784,2.08034
2832.71814,2.08517
2831.68843,2.08957
2830.65873,2.09351
2829.62902,2.09697
2828.59932,2.09997
2827.56961,2.10252
2826.53991,2.10466
2825.51020,2.10645
2824.48050,2.10793
2823.45079,2.10918
2822.42109,2.11023
2821.39139,2.11115
2820.36168,2.11197
2819.33198,2.11273
2818.30227,2.11343
2817.27257,2.11408
2816.24286,2.11468
2815.21316,2.11522
2814.18345,2.11570
2813.15375,2.11612
2812.12404,2.11647
2811.09434,2.11677
2810.06463,2.11703
2809.03493,2.11726
2808.00522,2.11748
2806.97552,2.11770
2805.94581,2.11793
2804.91611,2.11818
2803.88640,2.11846
2802.85670,2.11877
2801.82699,2.11911
2800.79729,2.11948
2799.76758,2.11987
2798.73788,2.12029
2797.70817,2.12073
2796.67847,2.12118
2795.64876,2.12163
2794.61906,2.12206
2793.58935,2.12247
2792.55965,2.12284
2791.52994,2.12315
2790.50024,2.12342
2789.47053,2.12362
2788.44083,2.12377
2787.41112,2.12385
2786.38142,2.12389
2785.35171,2.12390
2784.32201,2.12389
2783.29230,2.12386
2782.26260,2.12384
2781.23289,2.12382
2780.20319,2.12382
2779.17348,2.12384
2778.14378,2.12388
2777.11408,2.12394
2776.08437,2.12400
2775.05467,2.12407
2774.02496,2.12413
2772.99526,2.12418
2771.96555,2.12421
2770.93585,2.12420
2769.90614,2.12414
2768.87644,2.12405
2767.84673,2.12390
2766.81703,2.12371
2765.78732,2.12349
2764.75762,2.12324
2763.72791,2.12298
2762.69821,2.12273
2761.66850,2.12251
2760.63880,2.12233
2759.60909,2.12221
2758.57939,2.12216
2757.54968,2.12219
2756.51998,2.12231
2755.49027,2.12252
2754.46057,2.12280
2753.43086,2.12315
2752.40116,2.12355
2751.37145,2.12398
2750.34175,2.12442
2749.31204,2.12486
2748.28234,2.12527
2747.25263,2.12563
2746.22293,2.12593
2745.19322,2.12616
2744.16352,2.12632
2743.13381,2.12641
2742.10411,2.12642
2741.07440,2.12636
2740.04470,2.12623
2739.01499,2.12606
2737.98529,2.12583
2736.95558,2.12557
2735.92588,2.12530
2734.89617,2.12503
2733.86647,2.12478
2732.83676,2.12457
2731.80706,2.12439
2730.77736,2.12425
2729.74765,2.12415
2728.71795,2.12409
2727.68824,2.12408
2726.65854,2.12410
2725.62883,2.12416
2724.59913,2.12425
2723.56942,2.12437
2722.53972,2.12453
2721.51001,2.12471
2720.48031,2.12492
2719.45060,2.12516
2718.42090,2.12541
2717.39119,2.12567
2716.36149,2.12593
2715.33178,2.12618
2714.30208,2.12641
2713.27237,2.12662
2712.24267,2.12681
2711.21296,2.12698
2710.18326,2.12711
2709.15355,2.12723
2708.12385,2.12730
2707.09414,2.12735
2706.06444,2.12736
2705.03473,2.12733
2704.00503,2.12727
2702.97532,2.12718
2701.94562,2.12708
2700.91591,2.12696
2699.88621,2.12684
2698.85650,2.12673
2697.82680,2.12663
2696.79709,2.12656
2695.76739,2.12650
2694.73768,2.12647
2693.70798,2.12645
2692.67827,2.12644
2691.64857,2.12644
2690.61886,2.12643
2689.58916,2.12643
2688.55945,2.12641
2687.52975,2.12640
2686.50005,2.12638
2685.47034,2.12634
2684.44064,2.12630
2683.41093,2.12624
2682.38123,2.12616
2681.35152,2.12608
2680.32182,2.12598
2679.29211,2.12589
2678.26241,2.12580
2677.23270,2.12572
2676.20300,2.12567
2675.17329,2.12566
2674.14359,2.12567
2673.11388,2.12572
2672.08418,2.12579
2671.05447,2.12589
2670.02477,2.12600
2668.99506,2.12612
2667.96536,2.12624
2666.93565,2.12635
2665.90595,2.12645
2664.87624,2.12654
2663.84654,2.12660
2662.81683,2.12662
2661.78713,2.12660
2660.75742,2.12652
2659.72772,2.12639
2658.69801,2.12620
2657.66831,2.12595
2656.63860,2.12564
2655.60890,2.12527
2654.57919,2.12485
2653.54949,2.12439
2652.51978,2.12390
2651.49008,2.12341
2650.46037,2.12291
2649.43067,2.12241
2648.40096,2.12194
2647.37126,2.12150
2646.34155,2.12110
2645.31185,2.12075
2644.28214,2.12046
2643.25244,2.12024
2642.22274,2.12008
2641.19303,2.11998
2640.16333,2.11994
2639.13362,2.11995
2638.10392,2.12000
2637.07421,2.12007
2636.04451,2.12015
2635.01480,2.12024
2633.98510,2.12032
2632.95539,2.12038
2631.92569,2.12040
2630.89598,2.12039
2629.86628,2.12033
2628.83657,2.12023
2627.80687,2.12010
2626.77716,2.11992
2625.74746,2.11971
2624.71775,2.11948
2623.68805,2.11924
2622.65834,2.11898
2621.62864,2.11873
2620.59893,2.11848
2619.56923,2.11825
2618.53952,2.11802
2617.50982,2.11781
2616.48011,2.11761
2615.45041,2.11742
2614.42070,2.11724
2613.39100,2.11707
2612.36129,2.11691
2611.33159,2.11676
2610.30188,2.11662
2609.27218,2.11648
2608.24247,2.11634
2607.21277,2.11621
2606.18306,2.11608
2605.15336,2.11594
2604.12365,2.11582
2603.09395,2.11569
2602.06424,2.11558
2601.03454,2.11548
2600.00483,2.11539
2598.97513,2.11532
2597.94543,2.11527
2596.91572,2.11523
2595.88602,2.11521
2594.85631,2.11520
2593.82661,2.11520
2592.79690,2.11521
2591.76720,2.11524
2590.73749,2.11526
2589.70779,2.11530
2588.67808,2.11535
2587.64838,2.11540
2586.61867,2.11545
2585.58897,2.11551
2584.55926,2.11558
2583.52956,2.11565
2582.49985,2.11572
2581.47015,2.11579
2580.44044,2.11584
2579.41074,2.11589
2578.38103,2.11592
2577.35133,2.11594
2576.32162,2.11593
2575.29192,2.11590
2574.26221,2.11584
2573.23251,2.11574
2572.20280,2.11562
2571.17310,2.11546
2570.14339,2.11527
2569.11369,2.11505
2568.08398,2.11481
2567.05428,2.11454
2566.02457,2.11425
2564.99487,2.11395
2563.96516,2.11365
2562.93546,2.11335
2561.90575,2.11305
2560.87605,2.11277
2559.84634,2.11251
2558.81664,2.11227
2557.78693,2.11205
2556.75723,2.11185
2555.72752,2.11167
2554.69782,2.11151
2553.66811,2.11138
2552.63841,2.11126
2551.60871,2.11116
2550.57900,2.11107
2549.54930,2.11099
2548.51959,2.11091
2547.48989,2.11085
2546.46018,2.11079
2545.43048,2.11075
2544.40077,2.11072
2543.37107,2.11071
2542.34136,2.11072
2541.31166,2.11075
2540.28195,2.11080
2539.25225,2.11088
2538.22254,2.11098
2537.19284,2.11111
2536.16313,2.11128
2535.13343,2.11148
2534.10372,2.11171
2533.07402,2.11198
2532.04431,2.11228
2531.01461,2.11262
2529.98490,2.11298
2528.95520,2.11336
2527.92549,2.11376
2526.89579,2.11415
2525.86608,2.11454
2524.83638,2.11492
2523.80667,2.11529
2522.77697,2.11564
2521.74726,2.11597
2520.71756,2.11627
2519.68785,2.11653
2518.65815,2.11675
2517.62844,2.11691
2516.59874,2.11700
2515.56903,2.11702
2514.53933,2.11698
2513.50962,2.11687
2512.47992,2.11669
2511.45021,2.11644
2510.42051,2.11613
2509.39080,2.11576
2508.36110,2.11534
2507.33140,2.11487
2506.30169,2.11436
2505.27199,2.11380
2504.24228,2.11322
2503.21258,2.11262
2502.18287,2.11199
2501.15317,2.11137
2500.12346,2.11075
2499.09376,2.11014
2498.06405,2.10954
2497.03435,2.10896
2496.00464,2.10840
2494.97494,2.10785
2493.94523,2.10733
2492.91553,2.10682
2491.88582,2.10633
2490.85612,2.10586
2489.82641,2.10542
2488.79671,2.10499
2487.76700,2.10457
2486.73730,2.10417
2485.70759,2.10378
2484.67789,2.10341
2483.64818,2.10306
2482.61848,2.10271
2481.58877,2.10238
2480.55907,2.10207
2479.52936,2.10176
2478.49966,2.10146
2477.46995,2.10118
2476.44025,2.10090
2475.41054,2.10063
2474.38084,2.10036
2473.35113,2.10009
2472.32143,2.09982
2471.29172,2.09954
2470.26202,2.09926
2469.23231,2.09899
2468.20261,2.09871
2467.17290,2.09842
2466.14320,2.09813
2465.11349,2.09784
2464.08379,2.09753
2463.05409,2.09722
2462.02438,2.09690
2460.99468,2.09658
2459.96497,2.09625
2458.93527,2.09592
2457.90556,2.09558
2456.87586,2.09525
2455.84615,2.09492
2454.81645,2.09460
2453.78674,2.09429
2452.75704,2.09400
2451.72733,2.09373
2450.69763,2.09349
2449.66792,2.09328
2448.63822,2.09311
2447.60851,2.09299
2446.57881,2.09291
2445.54910,2.09289
2444.51940,2.09292
2443.48969,2.09300
2442.45999,2.09313
2441.43028,2.09329
2440.40058,2.09348
2439.37087,2.09369
2438.34117,2.09391
2437.31146,2.09412
2436.28176,2.09430
2435.25205,2.09446
2434.22235,2.09457
2433.19264,2.09463
2432.16294,2.09464
2431.13323,2.09458
2430.10353,2.09446
2429.07382,2.09427
2428.04412,2.09402
2427.01441,2.09372
2425.98471,2.09337
2424.95500,2.09300
2423.92530,2.09261
2422.89559,2.09221
2421.86589,2.09182
2420.83618,2.09146
2419.80648,2.09111
2418.77678,2.09081
2417.74707,2.09054
2416.71737,2.09031
2415.68766,2.09013
2414.65796,2.08998
2413.62825,2.08987
2412.59855,2.08977
2411.56884,2.08970
2410.53914,2.08963
2409.50943,2.08956
2408.47973,2.08948
2407.45002,2.08939
2406.42032,2.08928
2405.39061,2.08913
2404.36091,2.08896
2403.33120,2.08876
2402.30150,2.08853
2401.27179,2.08827
2400.24209,2.08799
2399.21238,2.08769
2398.18268,2.08736
2397.15297,2.08703
2396.12327,2.08668
2395.09356,2.08634
2394.06386,2.08600
2393.03415,2.08567
2392.00445,2.08537
2390.97474,2.08509
2389.94504,2.08486
2388.91533,2.08466
2387.88563,2.08452
2386.85592,2.08444
2385.82622,2.08443
2384.79651,2.08448
2383.76681,2.08460
2382.73710,2.08481
2381.70740,2.08509
2380.67769,2.08546
2379.64799,2.08590
2378.61828,2.08641
2377.58858,2.08698
2376.55887,2.08760
2375.52917,2.08826
2374.49946,2.08893
2373.46976,2.08959
2372.44006,2.09022
2371.41035,2.09081
2370.38065,2.09133
2369.35094,2.09178
2368.32124,2.09213
2367.29153,2.09238
2366.26183,2.09252
2365.23212,2.09255
2364.20242,2.09247
2363.17271,2.09229
2362.14301,2.09200
2361.11330,2.09165
2360.08360,2.09123
2359.05389,2.09078
2358.02419,2.09032
2356.99448,2.08989
2355.96478,2.08947
2354.93507,2.08911
2353.90537,2.08879
2352.87566,2.08853
2351.84596,2.08833
2350.81625,2.08817
2349.78655,2.08806
2348.75684,2.08797
2347.72714,2.08790
2346.69743,2.08781
2345.66773,2.08770
2344.63802,2.08754
2343.60832,2.08734
2342.57861,2.08707
2341.54891,2.08673
2340.51920,2.08633
2339.48950,2.08587
2338.45979,2.08536
2337.43009,2.08481
2336.40038,2.08425
2335.37068,2.08369
2334.34097,2.08316
2333.31127,2.08267
2332.28156,2.08221
2331.25186,2.08180
2330.22215,2.08144
2329.19245,2.08113
2328.16275,2.08086
2327.13304,2.08063
2326.10334,2.08041
2325.07363,2.08019
2324.04393,2.07997
2323.01422,2.07972
2321.98452,2.07943
2320.95481,2.07910
2319.92511,2.07872
2318.89540,2.07828
2317.86570,2.07780
2316.83599,2.07729
2315.80629,2.07675
2314.77658,2.07620
2313.74688,2.07565
2312.71717,2.07511
2311.68747,2.07460
2310.65776,2.07413
2309.62806,2.07371
2308.59835,2.07333
2307.56865,2.07299
2306.53894,2.07271
2305.50924,2.07246
2304.47953,2.07225
2303.44983,2.07208
2302.42012,2.07192
2301.39042,2.07178
2300.36071,2.07164
2299.33101,2.07150
2298.30130,2.07136
2297.27160,2.07121
2296.24189,2.07104
2295.21219,2.07087
2294.18248,2.07069
2293.15278,2.07051
2292.12307,2.07034
2291.09337,2.07017
2290.06366,2.07001
2289.03396,2.06986
2288.00425,2.06972
2286.97455,2.06961
2285.94484,2.06953
2284.91514,2.06946
2283.88544,2.06942
2282.85573,2.06941
2281.82603,2.06941
2280.79632,2.06943
2279.76662,2.06947
2278.73691,2.06951
2277.70721,2.06956
2276.67750,2.06960
2275.64780,2.06964
2274.61809,2.06967
2273.58839,2.06968
2272.55868,2.06967
2271.52898,2.06964
2270.49927,2.06958
2269.46957,2.06950
2268.43986,2.06939
2267.41016,2.06925
2266.38045,2.06908
2265.35075,2.06888
2264.32104,2.06867
2263.29134,2.06844
2262.26163,2.06822
2261.23193,2.06800
2260.20222,2.06780
2259.17252,2.06762
2258.14281,2.06747
2257.11311,2.06736
2256.08340,2.06727
2255.05370,2.06720
2254.02399,2.06717
2252.99429,2.06715
2251.96458,2.06716
2250.93488,2.06718
2249.90517,2.06721
2248.87547,2.06725
2247.84576,2.06729
2246.81606,2.06731
2245.78635,2.06732
2244.75665,2.06731
2243.72694,2.06727
2242.69724,2.06721
2241.66753,2.06712
2240.63783,2.06701
2239.60813,2.06689
2238.57842,2.06676
2237.54872,2.06664
2236.51901,2.06651
2235.48931,2.06639
2234.45960,2.06628
2233.42990,2.06617
2232.40019,2.06608
2231.37049,2.06600
2230.34078,2.06593
2229.31108,2.06588
2228.28137,2.06586
2227.25167,2.06586
2226.22196,2.06588
2225.19226,2.06593
2224.16255,2.06599
2223.13285,2.06606
2222.10314,2.06615
2221.07344,2.06626
2220.04373,2.06637
2219.01403,2.06649
2217.98432,2.06662
2216.95462,2.06676
2215.92491,2.06690
2214.89521,2.06704
2213.86550,2.06717
2212.83580,2.06730
2211.80609,2.06742
2210.77639,2.06752
2209.74668,2.06760
2208.71698,2.06767
2207.68727,2.06771
2206.65757,2.06775
2205.62786,2.06777
2204.59816,2.06779
2203.56845,2.06780
2202.53875,2.06781
2201.50904,2.06781
2200.47934,2.06781
2199.44963,2.06780
2198.41993,2.06779
2197.39022,2.06778
2196.36052,2.06776
2195.33081,2.06774
2194.30111,2.06771
2193.27141,2.06768
2192.24170,2.06763
2191.21200,2.06757
2190.18229,2.06750
2189.15259,2.06741
2188.12288,2.06731
2187.09318,2.06720
2186.06347,2.06708
2185.03377,2.06695
2184.00406,2.06684
2182.97436,2.06673
2181.94465,2.06664
2180.91495,2.06658
2179.88524,2.06655
2178.85554,2.06656
2177.82583,2.06659
2176.79613,2.06666
2175.76642,2.06677
2174.73672,2.06690
2173.70701,2.06706
2172.67731,2.06724
2171.64760,2.06744
2170.61790,2.06765
2169.58819,2.06787
2168.55849,2.06808
2167.52878,2.06830
2166.49908,2.06849
2165.46937,2.06868
2164.43967,2.06886
2163.40996,2.06902
2162.38026,2.06918
2161.35055,2.06933
2160.32085,2.06950
2159.29114,2.06967
2158.26144,2.06985
2157.23173,2.07005
2156.20203,2.07027
2155.17232,2.07051
2154.14262,2.07076
2153.11291,2.07102
2152.08321,2.07129
2151.05350,2.07156
2150.02380,2.07182
2148.99410,2.07208
2147.96439,2.07232
2146.93469,2.07255
2145.90498,2.07275
2144.87528,2.07292
2143.84557,2.07305
2142.81587,2.07315
2141.78616,2.07321
2140.75646,2.07323
2139.72675,2.07322
2138.69705,2.07316
2137.66734,2.07308
2136.63764,2.07296
2135.60793,2.07281
2134.57823,2.07264
2133.54852,2.07244
2132.51882,2.07223
2131.48911,2.07199
2130.45941,2.07174
2129.42970,2.07147
2128.40000,2.07119
2127.37029,2.07091
2126.34059,2.07064
2125.31088,2.07037
2124.28118,2.07012
2123.25147,2.06989
2122.22177,2.06969
2121.19206,2.06951
2120.16236,2.06935
2119.13265,2.06922
2118.10295,2.06911
2117.07324,2.06901
2116.04354,2.06892
2115.01383,2.06885
2113.98413,2.06878
2112.95442,2.06871
2111.92472,2.06865
2110.89501,2.06858
2109.86531,2.06852
2108.83560,2.06846
2107.80590,2.06841
2106.77619,2.06835
2105.74649,2.06829
2104.71679,2.06825
2103.68708,2.06822
2102.65738,2.06820
2101.62767,2.06820
2100.59797,2.06823
2099.56826,2.06827
2098.53856,2.06833
2097.50885,2.06841
2096.47915,2.06849
2095.44944,2.06857
2094.41974,2.06864
2093.39003,2.06870
2092.36033,2.06875
2091.33062,2.06877
2090.30092,2.06878
2089.27121,2.06876
2088.24151,2.06872
2087.21180,2.06868
2086.18210,2.06862
2085.15239,2.06856
2084.12269,2.06850
2083.09298,2.06844
2082.06328,2.06840
2081.03357,2.06837
2080.00387,2.06836
2078.97416,2.06838
2077.94446,2.06843
2076.91475,2.06852
2075.88505,2.06862
2074.85534,2.06875
2073.82564,2.06890
2072.79593,2.06905
2071.76623,2.06921
2070.73652,2.06937
2069.70682,2.06952
2068.67711,2.06965
2067.64741,2.06977
2066.61770,2.06987
2065.58800,2.06995
2064.55829,2.07001
2063.52859,2.07006
2062.49888,2.07009
2061.46918,2.07010
2060.43948,2.07010
2059.40977,2.07008
2058.38007,2.07005
2057.35036,2.07000
2056.32066,2.06993
2055.29095,2.06984
2054.26125,2.06973
2053.23154,2.06959
2052.20184,2.06942
2051.17213,2.06920
2050.14243,2.06894
2049.11272,2.06863
2048.08302,2.06827
2047.05331,2.06786
2046.02361,2.06740
2044.99390,2.06691
2043.96420,2.06637
2042.93449,2.06581
2041.90479,2.06524
2040.87508,2.06466
2039.84538,2.06409
2038.81567,2.06353
2037.78597,2.06300
2036.75626,2.06250
2035.72656,2.06204
2034.69685,2.06162
2033.66715,2.06125
2032.63744,2.06092
2031.60774,2.06063
2030.57803,2.06038
2029.54833,2.06016
2028.51862,2.05997
2027.48892,2.05980
2026.45921,2.05964
2025.42951,2.05949
2024.39980,2.05934
2023.37010,2.05919
2022.34039,2.05904
2021.31069,2.05889
2020.28098,2.05874
2019.25128,2.05859
2018.22157,2.05845
2017.19187,2.05831
2016.16216,2.05819
2015.13246,2.05807
2014.10276,2.05797
2013.07305,2.05789
2012.04335,2.05782
2011.01364,2.05776
2009.98394,2.05772
2008.95423,2.05769
2007.92453,2.05766
2006.89482,2.05763
2005.86512,2.05760
2004.83541,2.05756
2003.80571,2.05751
2002.77600,2.05744
2001.74630,2.05736
2000.71659,2.05727
1999.68689,2.05718
1998.65718,2.05710
1997.62748,2.05703
1996.59777,2.05697
1995.56807,2.05692
1994.53836,2.05689
1993.50866,2.05689
1992.47895,2.05690
1991.44925,2.05694
1990.41954,2.05700
1989.38984,2.05709
1988.36013,2.05719
1987.33043,2.05731
1986.30072,2.05743
1985.27102,2.05755
1984.24131,2.05765
1983.21161,2.05772
1982.18190,2.05777
1981.15220,2.05778
1980.12249,2.05776
1979.09279,2.05771
1978.06308,2.05765
1977.03338,2.05757
1976.00367,2.05749
1974.97397,2.05742
1973.94426,2.05734
1972.91456,2.05728
1971.88485,2.05722
1970.85515,2.05718
1969.82545,2.05715
1968.79574,2.05713
1967.76604,2.05713
1966.73633,2.05715
1965.70663,2.05718
1964.67692,2.05723
1963.64722,2.05729
1962.61751,2.05736
1961.58781,2.05742
1960.55810,2.05747
1959.52840,2.05752
1958.49869,2.05755
1957.46899,2.05758
1956.43928,2.05760
1955.40958,2.05762
1954.37987,2.05765
1953.35017,2.05767
1952.32046,2.05770
1951.29076,2.05772
1950.26105,2.05773
1949.23135,2.05774
1948.20164,2.05772
1947.17194,2.05769
1946.14223,2.05764
1945.11253,2.05757
1944.08282,2.05749
1943.05312,2.05740
1942.02341,2.05730
1940.99371,2.05719
1939.96400,2.05709
1938.93430,2.05698
1937.90459,2.05689
1936.87489,2.05680
1935.84518,2.05674
1934.81548,2.05670
1933.78577,2.05669
1932.75607,2.05671
1931.72636,2.05676
1930.69666,2.05684
1929.66695,2.05695
1928.63725,2.05708
1927.60754,2.05722
1926.57784,2.05736
1925.54814,2.05751
1924.51843,2.05764
1923.48873,2.05775
1922.45902,2.05784
1921.42932,2.05791
1920.39961,2.05795
1919.36991,2.05797
1918.34020,2.05797
1917.31050,2.05795
1916.28079,2.05791
1915.25109,2.05787
1914.22138,2.05782
1913.19168,2.05778
1912.16197,2.05775
1911.13227,2.05774
1910.10256,2.05775
1909.07286,2.05779
1908.04315,2.05785
1907.01345,2.05795
1905.98374,2.05808
1904.95404,2.05823
1903.92433,2.05839
1902.89463,2.05856
1901.86492,2.05874
1900.83522,2.05891
1899.80551,2.05906
1898.77581,2.05920
1897.74610,2.05932
1896.71640,2.05942
1895.68669,2.05949
1894.65699,2.05953
1893.62728,2.05954
1892.59758,2.05953
1891.56787,2.05950
1890.53817,2.05946
1889.50846,2.05941
1888.47876,2.05937
1887.44905,2.05933
1886.41935,2.05930
1885.38964,2.05929
1884.35994,2.05929
1883.33023,2.05933
1882.30053,2.05939
1881.27083,2.05947
1880.24112,2.05958
1879.21142,2.05971
1878.18171,2.05987
1877.15201,2.06004
1876.12230,2.06023
1875.09260,2.06044
1874.06289,2.06066
1873.03319,2.06089
1872.00348,2.06112
1870.97378,2.06137
1869.94407,2.06162
1868.91437,2.06187
1867.88466,2.06212
1866.85496,2.06237
1865.82525,2.06262
1864.79555,2.06285
1863.76584,2.06306
1862.73614,2.06326
1861.70643,2.06344
1860.67673,2.06360
1859.64702,2.06373
1858.61732,2.06385
1857.58761,2.06394
1856.55791,2.06403
1855.52820,2.06409
1854.49850,2.06416
1853.46879,2.06422
1852.43909,2.06430
1851.40938,2.06438
1850.37968,2.06449
1849.34997,2.06462
1848.32027,2.06479
1847.29056,2.06499
1846.26086,2.06524
1845.23115,2.06553
1844.20145,2.06586
1843.17174,2.06623
1842.14204,2.06664
1841.11233,2.06708
1840.08263,2.06756
1839.05292,2.06806
1838.02322,2.06857
1836.99351,2.06911
1835.96381,2.06965
1834.93411,2.07020
1833.90440,2.07074
1832.87470,2.07128
1831.84499,2.07182
1830.81529,2.07235
1829.78558,2.07288
1828.75588,2.07340
1827.72617,2.07391
1826.69647,2.07442
1825.66676,2.07493
1824.63706,2.07545
1823.60735,2.07599
1822.57765,2.07655
1821.54794,2.07715
1820.51824,2.07779
1819.48853,2.07849
1818.45883,2.07924
1817.42912,2.08007
1816.39942,2.08096
1815.36971,2.08194
1814.34001,2.08301
1813.31030,2.08417
1812.28060,2.08543
1811.25089,2.08678
1810.22119,2.08823
1809.19148,2.08975
1808.16178,2.09135
1807.13207,2.09300
1806.10237,2.09469
1805.07266,2.09639
1804.04296,2.09810
1803.01325,2.09978
1801.98355,2.10141
1800.95384,2.10297
1799.92414,2.10446
1798.89443,2.10584
1797.86473,2.10712
1796.83502,2.10828
1795.80532,2.10932
1794.77561,2.11023
1793.74591,2.11101
1792.71620,2.11167
1791.68650,2.11222
1790.65680,2.11268
1789.62709,2.11306
1788.59739,2.11340
1787.56768,2.11370
1786.53798,2.11400
1785.50827,2.11430
1784.47857,2.11462
1783.44886,2.11497
1782.41916,2.11536
1781.38945,2.11580
1780.35975,2.11627
1779.33004,2.11678
1778.30034,2.11733
1777.27063,2.11790
1776.24093,2.11851
1775.21122,2.11913
1774.18152,2.11977
1773.15181,2.12042
1772.12211,2.12107
1771.09240,2.12171
1770.06270,2.12234
1769.03299,2.12297
1768.00329,2.12360
1766.97358,2.12422
1765.94388,2.12486
1764.91417,2.12551
1763.88447,2.12620
1762.85476,2.12693
1761.82506,2.12771
1760.79535,2.12853
1759.76565,2.12941
1758.73594,2.13032
1757.70624,2.13126
1756.67653,2.13221
1755.64683,2.13318
1754.61712,2.13413
1753.58742,2.13505
1752.55771,2.13593
1751.52801,2.13675
1750.49830,2.13748
1749.46860,2.13810
1748.43889,2.13860
1747.40919,2.13896
1746.37949,2.13917
1745.34978,2.13922
1744.32008,2.13910
1743.29037,2.13882
1742.26067,2.13837
1741.23096,2.13778
1740.20126,2.13705
1739.17155,2.13621
1738.14185,2.13527
1737.11214,2.13425
1736.08244,2.13318
1735.05273,2.13208
1734.02303,2.13096
1732.99332,2.12984
1731.96362,2.12876
1730.93391,2.12771
1729.90421,2.12671
1728.87450,2.12577
1727.84480,2.12489
1726.81509,2.12406
1725.78539,2.12327
1724.75568,2.12252
1723.72598,2.12180
1722.69627,2.12108
1721.66657,2.12033
1720.63686,2.11955
1719.60716,2.11869
1718.57745,2.11775
1717.54775,2.11670
1716.51804,2.11552
1715.48834,2.11421
1714.45863,2.11275
1713.42893,2.11115
1712.39922,2.10940
1711.36952,2.10753
1710.33981,2.10551
1709.31011,2.10338
1708.28040,2.10114
1707.25070,2.09880
1706.22099,2.09640
1705.19129,2.09396
1704.16158,2.09149
1703.13188,2.08902
1702.10218,2.08658
1701.07247,2.08419
1700.04277,2.08186
1699.01306,2.07960
1697.98336,2.07744
1696.95365,2.07539
1695.92395,2.07347
1694.89424,2.07168
1693.86454,2.07004
1692.83483,2.06853
1691.80513,2.06717
1690.77542,2.06595
1689.74572,2.06489
1688.71601,2.06399
1687.68631,2.06323
1686.65660,2.06260
1685.62690,2.06208
1684.59719,2.06166
1683.56749,2.06133
1682.53778,2.06108
1681.50808,2.06089
1680.47837,2.06074
1679.44867,2.06064
1678.41896,2.06055
1677.38926,2.06046
1676.35955,2.06037
1675.32985,2.06025
1674.30014,2.06013
1673.27044,2.05999
1672.24073,2.05984
1671.21103,2.05969
1670.18132,2.05952
1669.15162,2.05936
1668.12191,2.05919
1667.09221,2.05903
1666.06250,2.05889
1665.03280,2.05877
1664.00309,2.05867
1662.97339,2.05858
1661.94368,2.05848
1660.91398,2.05838
1659.88427,2.05826
1658.85457,2.05814
1657.82486,2.05799
1656.79516,2.05781
1655.76546,2.05759
1654.73575,2.05731
1653.70605,2.05699
1652.67634,2.05662
1651.64664,2.05621
1650.61693,2.05576
1649.58723,2.05529
1648.55752,2.05480
1647.52782,2.05432
1646.49811,2.05385
1645.46841,2.05340
1644.43870,2.05297
1643.40900,2.05258
1642.37929,2.05224
1641.34959,2.05194
1640.31988,2.05169
1639.29018,2.05147
1638.26047,2.05129
1637.23077,2.05114
1636.20106,2.05101
1635.17136,2.05092
1634.14165,2.05084
1633.11195,2.05076
1632.08224,2.05068
1631.05254,2.05058
1630.02283,2.05047
1628.99313,2.05035
1627.96342,2.05021
1626.93372,2.05005
1625.90401,2.04988
1624.87431,2.04970
1623.84460,2.04951
1622.81490,2.04932
1621.78519,2.04913
1620.75549,2.04893
1619.72578,2.04874
1618.69608,2.04856
1617.66637,2.04839
1616.63667,2.04823
1615.60696,2.04809
1614.57726,2.04796
1613.54755,2.04784
1612.51785,2.04773
1611.48815,2.04763
1610.45844,2.04753
1609.42874,2.04742
1608.39903,2.04729
1607.36933,2.04715
1606.33962,2.04699
1605.30992,2.04681
1604.28021,2.04660
1603.25051,2.04636
1602.22080,2.04610
1601.19110,2.04582
1600.16139,2.04553
1599.13169,2.04524
1598.10198,2.04495
1597.07228,2.04468
1596.04257,2.04443
1595.01287,2.04424
1593.98316,2.04410
1592.95346,2.04402
1591.92375,2.04402
1590.89405,2.04408
1589.86434,2.04422
1588.83464,2.04442
1587.80493,2.04470
1586.77523,2.04504
1585.74552,2.04541
1584.71582,2.04583
1583.68611,2.04625
1582.65641,2.04669
1581.62670,2.04713
1580.59700,2.04756
1579.56729,2.04797
1578.53759,2.04837
1577.50788,2.04874
1576.47818,2.04911
1575.44847,2.04946
1574.41877,2.04979
1573.38906,2.05012
1572.35936,2.05044
1571.32965,2.05076
1570.29995,2.05108
1569.27024,2.05140
1568.24054,2.05170
1567.21084,2.05197
1566.18113,2.05219
1565.15143,2.05235
1564.12172,2.05245
1563.09202,2.05245
1562.06231,2.05235
1561.03261,2.05212
1560.00290,2.05177
1558.97320,2.05127
1557.94349,2.05065
1556.91379,2.04991
1555.88408,2.04907
1554.85438,2.04816
1553.82467,2.04719
1552.79497,2.04619
1551.76526,2.04519
1550.73556,2.04421
1549.70585,2.04325
1548.67615,2.04235
1547.64644,2.04153
1546.61674,2.04081
1545.58703,2.04020
1544.55733,2.03972
1543.52762,2.03937
1542.49792,2.03916
1541.46821,2.03912
1540.43851,2.03924
1539.40880,2.03951
1538.37910,2.03995
1537.34939,2.04053
1536.31969,2.04125
1535.28998,2.04211
1534.26028,2.04311
1533.23057,2.04427
1532.20087,2.04556
1531.17116,2.04698
1530.14146,2.04850
1529.11175,2.05011
1528.08205,2.05176
1527.05234,2.05343
1526.02264,2.05508
1524.99293,2.05668
1523.96323,2.05822
1522.93353,2.05968
1521.90382,2.06105
1520.87412,2.06232
1519.84441,2.06349
1518.81471,2.06455
1517.78500,2.06552
1516.75530,2.06639
1515.72559,2.06716
1514.69589,2.06783
1513.66618,2.06841
1512.63648,2.06892
1511.60677,2.06938
1510.57707,2.06982
1509.54736,2.07026
1508.51766,2.07070
1507.48795,2.07115
1506.45825,2.07159
1505.42854,2.07203
1504.39884,2.07246
1503.36913,2.07287
1502.33943,2.07327
1501.30972,2.07366
1500.28002,2.07406
1499.25031,2.07448
1498.22061,2.07494
1497.19090,2.07545
1496.16120,2.07604
1495.13149,2.07672
1494.10179,2.07750
1493.07208,2.07840
1492.04238,2.07942
1491.01267,2.08056
1489.98297,2.08183
1488.95326,2.08321
1487.92356,2.08469
1486.89385,2.08625
1485.86415,2.08784
1484.83444,2.08939
1483.80474,2.09084
1482.77503,2.09210
1481.74533,2.09310
1480.71562,2.09379
1479.68592,2.09409
1478.65621,2.09399
1477.62651,2.09345
1476.59681,2.09247
1475.56710,2.09108
1474.53740,2.08929
1473.50769,2.08717
1472.47799,2.08477
1471.44828,2.08219
1470.41858,2.07950
1469.38887,2.07681
1468.35917,2.07421
1467.32946,2.07179
1466.29976,2.06961
1465.27005,2.06773
1464.24035,2.06618
1463.21064,2.06498
1462.18094,2.06412
1461.15123,2.06355
1460.12153,2.06322
1459.09182,2.06306
1458.06212,2.06301
1457.03241,2.06299
1456.00271,2.06293
1454.97300,2.06277
1453.94330,2.06246
1452.91359,2.06194
1451.88389,2.06120
1450.85418,2.06022
1449.82448,2.05901
1448.79477,2.05758
1447.76507,2.05596
1446.73536,2.05420
1445.70566,2.05235
1444.67595,2.05046
1443.64625,2.04859
1442.61654,2.04676
1441.58684,2.04504
1440.55713,2.04345
1439.52743,2.04204
1438.49772,2.04082
1437.46802,2.03980
1436.43831,2.03899
1435.40861,2.03840
1434.37890,2.03800
1433.34920,2.03780
1432.31950,2.03776
1431.28979,2.03787
1430.26009,2.03810
1429.23038,2.03843
1428.20068,2.03884
1427.17097,2.03929
1426.14127,2.03976
1425.11156,2.04022
1424.08186,2.04067
1423.05215,2.04107
1422.02245,2.04142
1420.99274,2.04171
1419.96304,2.04193
1418.93333,2.04209
1417.90363,2.04219
1416.87392,2.04223
1415.84422,2.04223
1414.81451,2.04220
1413.78481,2.04216
1412.75510,2.04212
1411.72540,2.04209
1410.69569,2.04209
1409.66599,2.04212
1408.63628,2.04220
1407.60658,2.04232
1406.57687,2.04251
1405.54717,2.04274
1404.51746,2.04302
1403.48776,2.04334
1402.45805,2.04369
1401.42835,2.04405
1400.39864,2.04441
1399.36894,2.04475
1398.33923,2.04507
1397.30953,2.04535
1396.27982,2.04559
1395.25012,2.04576
1394.22041,2.04586
1393.19071,2.04587
1392.16100,2.04580
1391.13130,2.04563
1390.10159,2.04537
1389.07189,2.04502
1388.04219,2.04457
1387.01248,2.04404
1385.98278,2.04344
1384.95307,2.04277
1383.92337,2.04206
1382.89366,2.04131
1381.86396,2.04053
1380.83425,2.03973
1379.80455,2.03893
1378.77484,2.03813
1377.74514,2.03734
1376.71543,2.03656
1375.68573,2.03580
1374.65602,2.03507
1373.62632,2.03436
1372.59661,2.03368
1371.56691,2.03302
1370.53720,2.03237
1369.50750,2.03174
1368.47779,2.03112
1367.44809,2.03052
1366.41838,2.02993
1365.38868,2.02937
1364.35897,2.02883
1363.32927,2.02833
1362.29956,2.02787
1361.26986,2.02747
1360.24015,2.02713
1359.21045,2.02685
1358.18074,2.02663
1357.15104,2.02650
1356.12133,2.02644
1355.09163,2.02646
1354.06192,2.02656
1353.03222,2.02674
1352.00251,2.02698
1350.97281,2.02728
1349.94310,2.02763
1348.91340,2.02802
1347.88369,2.02843
1346.85399,2.02886
1345.82428,2.02929
1344.79458,2.02972
1343.76488,2.03014
1342.73517,2.03054
1341.70547,2.03092
1340.67576,2.03127
1339.64606,2.03159
1338.61635,2.03187
1337.58665,2.03211
1336.55694,2.03230
1335.52724,2.03243
1334.49753,2.03251
1333.46783,2.03252
1332.43812,2.03248
1331.40842,2.03237
1330.37871,2.03220
1329.34901,2.03197
1328.31930,2.03169
1327.28960,2.03135
1326.25989,2.03096
1325.23019,2.03055
1324.20048,2.03011
1323.17078,2.02968
1322.14107,2.02927
1321.11137,2.02890
1320.08166,2.02857
1319.05196,2.02831
1318.02225,2.02812
1316.99255,2.02802
1315.96284,2.02802
1314.93314,2.02811
1313.90343,2.02829
1312.87373,2.02856
1311.84402,2.02890
1310.81432,2.02931
1309.78461,2.02977
1308.75491,2.03026
1307.72520,2.03077
1306.69550,2.03127
1305.66579,2.03175
1304.63609,2.03219
1303.60638,2.03259
1302.57668,2.03293
1301.54697,2.03321
1300.51727,2.03343
1299.48756,2.03361
1298.45786,2.03373
1297.42816,2.03380
1296.39845,2.03382
1295.36875,2.03380
1294.33904,2.03376
1293.30934,2.03370
1292.27963,2.03362
1291.24993,2.03355
1290.22022,2.03348
1289.19052,2.03342
1288.16081,2.03337
1287.13111,2.03333
1286.10140,2.03331
1285.07170,2.03331
1284.04199,2.03331
1283.01229,2.03332
1281.98258,2.03332
1280.95288,2.03332
1279.92317,2.03331
1278.89347,2.03329
1277.86376,2.03326
1276.83406,2.03322
1275.80435,2.03316
1274.77465,2.03309
1273.74494,2.03301
1272.71524,2.03290
1271.68553,2.03278
1270.65583,2.03264
1269.62612,2.03248
1268.59642,2.03231
1267.56671,2.03213
1266.53701,2.03194
1265.50730,2.03173
1264.47760,2.03151
1263.44789,2.03126
1262.41819,2.03099
1261.38848,2.03069
1260.35878,2.03035
1259.32907,2.02996
1258.29937,2.02951
1257.26966,2.02900
1256.23996,2.02844
1255.21025,2.02781
1254.18055,2.02714
1253.15085,2.02642
1252.12114,2.02567
1251.09144,2.02489
1250.06173,2.02409
1249.03203,2.02329
1248.00232,2.02250
1246.97262,2.02174
1245.94291,2.02103
1244.91321,2.02038
1243.88350,2.01980
1242.85380,2.01930
1241.82409,2.01887
1240.79439,2.01854
1239.76468,2.01829
1238.73498,2.01812
1237.70527,2.01802
1236.67557,2.01798
1235.64586,2.01799
1234.61616,2.01804
1233.58645,2.01811
1232.55675,2.01819
1231.52704,2.01827
1230.49734,2.01833
1229.46763,2.01837
1228.43793,2.01839
1227.40822,2.01837
1226.37852,2.01833
1225.34881,2.01826
1224.31911,2.01816
1223.28940,2.01804
1222.25970,2.01791
1221.22999,2.01778
1220.20029,2.01765
1219.17058,2.01753
1218.14088,2.01744
1217.11117,2.01738
1216.08147,2.01736
1215.05176,2.01737
1214.02206,2.01744
1212.99235,2.01755
1211.96265,2.01769
1210.93294,2.01787
1209.90324,2.01808
1208.87354,2.01830
1207.84383,2.01852
1206.81413,2.01873
1205.78442,2.01893
1204.75472,2.01909
1203.72501,2.01920
1202.69531,2.01925
1201.66560,2.01923
1200.63590,2.01913
1199.60619,2.01893
1198.57649,2.01865
1197.54678,2.01826
1196.51708,2.01778
1195.48737,2.01722
1194.45767,2.01656
1193.42796,2.01583
1192.39826,2.01503
1191.36855,2.01417
1190.33885,2.01326
1189.30914,2.01232
1188.27944,2.01134
1187.24973,2.01035
1186.22003,2.00935
1185.19032,2.00836
1184.16062,2.00737
1183.13091,2.00640
1182.10121,2.00543
1181.07150,2.00449
1180.04180,2.00356
1179.01209,2.00264
1177.98239,2.00174
1176.95268,2.00085
1175.92298,1.99997
1174.89327,1.99910
1173.86357,1.99825
1172.83386,1.99741
1171.80416,1.99659
1170.77445,1.99578
1169.74475,1.99500
1168.71504,1.99424
1167.68534,1.99350
1166.65563,1.99281
1165.62593,1.99214
1164.59623,1.99153
1163.56652,1.99097
1162.53682,1.99046
1161.50711,1.99001
1160.47741,1.98962
1159.44770,1.98930
1158.41800,1.98904
1157.38829,1.98883
1156.35859,1.98870
1155.32888,1.98863
1154.29918,1.98861
1153.26947,1.98866
1152.23977,1.98875
1151.21006,1.98889
1150.18036,1.98907
1149.15065,1.98927
1148.12095,1.98948
1147.09124,1.98970
1146.06154,1.98990
1145.03183,1.99009
1144.00213,1.99025
1142.97242,1.99036
1141.94272,1.99043
1140.91301,1.99044
1139.88331,1.99039
1138.85360,1.99025
1137.82390,1.99003
1136.79419,1.98972
1135.76449,1.98931
1134.73478,1.98880
1133.70508,1.98820
1132.67537,1.98750
1131.64567,1.98672
1130.61596,1.98584
1129.58626,1.98488
1128.55655,1.98384
1127.52685,1.98272
1126.49714,1.98154
1125.46744,1.98030
1124.43773,1.97901
1123.40803,1.97769
1122.37832,1.97634
1121.34862,1.97500
1120.31891,1.97367
1119.28921,1.97238
1118.25951,1.97112
1117.22980,1.96992
1116.20010,1.96879
1115.17039,1.96772
1114.14069,1.96672
1113.11098,1.96579
1112.08128,1.96494
1111.05157,1.96416
1110.02187,1.96344
1108.99216,1.96278
1107.96246,1.96216
1106.93275,1.96157
1105.90305,1.96100
1104.87334,1.96044
1103.84364,1.95988
1102.81393,1.95931
1101.78423,1.95874
1100.75452,1.95815
1099.72482,1.95756
1098.69511,1.95696
1097.66541,1.95636
1096.63570,1.95578
1095.60600,1.95521
1094.57629,1.95467
1093.54659,1.95415
1092.51688,1.95366
1091.48718,1.95319
1090.45747,1.95275
1089.42777,1.95234
1088.39806,1.95194
1087.36836,1.95155
1086.33865,1.95116
1085.30895,1.95076
1084.27924,1.95036
1083.24954,1.94992
1082.21983,1.94946
1081.19013,1.94896
1080.16042,1.94842
1079.13072,1.94784
1078.10101,1.94722
1077.07131,1.94657
1076.04160,1.94588
1075.01190,1.94517
1073.98220,1.94444
1072.95249,1.94372
1071.92279,1.94300
1070.89308,1.94229
1069.86338,1.94161
1068.83367,1.94096
1067.80397,1.94034
1066.77426,1.93975
1065.74456,1.93921
1064.71485,1.93870
1063.68515,1.93824
1062.65544,1.93782
1061.62574,1.93743
1060.59603,1.93708
1059.56633,1.93676
1058.53662,1.93646
1057.50692,1.93616
1056.47721,1.93585
1055.44751,1.93554
1054.41780,1.93519
1053.38810,1.93481
1052.35839,1.93438
1051.32869,1.93389
1050.29898,1.93332
1049.26928,1.93268
1048.23957,1.93196
1047.20987,1.93114
1046.18016,1.93025
1045.15046,1.92926
1044.12075,1.92819
1043.09105,1.92704
1042.06134,1.92582
1041.03164,1.92454
1040.00193,1.92322
1038.97223,1.92186
1037.94252,1.92048
1036.91282,1.91909
1035.88311,1.91769
1034.85341,1.91631
1033.82370,1.91495
1032.79400,1.91361
1031.76429,1.91231
1030.73459,1.91105
1029.70489,1.90982
1028.67518,1.90864
1027.64548,1.90750
1026.61577,1.90639
1025.58607,1.90533
1024.55636,1.90432
1023.52666,1.90336
1022.49695,1.90246
1021.46725,1.90162
1020.43754,1.90084
1019.40784,1.90014
1018.37813,1.89952
1017.34843,1.89899
1016.31872,1.89854
1015.28902,1.89818
1014.25931,1.89792
1013.22961,1.89774
1012.19990,1.89766
1011.17020,1.89768
1010.14049,1.89778
1009.11079,1.89797
1008.08108,1.89825
1007.05138,1.89861
1006.02167,1.89903
1004.99197,1.89951
1003.96226,1.90004
1002.93256,1.90061
1001.90285,1.90120
1000.87315,1.90182
999.84344,1.90245
998.81374,1.90310
997.78403,1.90374
996.75433,1.90438
995.72462,1.90501
994.69492,1.90561
993.66521,1.90618
992.63551,1.90670
991.60580,1.90719
990.57610,1.90762
989.54639,1.90801
988.51669,1.90835
987.48698,1.90865
986.45728,1.90892
985.42758,1.90918
984.39787,1.90942
983.36817,1.90968
982.33846,1.90994
981.30876,1.91022
980.27905,1.91053
979.24935,1.91086
978.21964,1.91123
977.18994,1.91162
976.16023,1.91203
975.13053,1.91245
974.10082,1.91287
973.07112,1.91326
972.04141,1.91361
971.01171,1.91389
969.98200,1.91408
968.95230,1.91416
967.92259,1.91411
966.89289,1.91392
965.86318,1.91358
964.83348,1.91309
963.80377,1.91246
962.77407,1.91171
961.74436,1.91085
960.71466,1.90991
959.68495,1.90889
958.65525,1.90783
957.62554,1.90676
956.59584,1.90569
955.56613,1.90466
954.53643,1.90369
953.50672,1.90278
952.47702,1.90195
951.44731,1.90121
950.41761,1.90055
949.38790,1.89998
948.35820,1.89948
947.32849,1.89904
946.29879,1.89866
945.26908,1.89831
944.23938,1.89799
943.20967,1.89768
942.17997,1.89738
941.15026,1.89708
940.12056,1.89677
939.09086,1.89646
938.06115,1.89615
937.03145,1.89582
936.00174,1.89548
934.97204,1.89515
933.94233,1.89483
932.91263,1.89454
931.88292,1.89428
930.85322,1.89406
929.82351,1.89388
928.79381,1.89374
927.76410,1.89365
926.73440,1.89359
925.70469,1.89358
924.67499,1.89361
923.64528,1.89367
922.61558,1.89377
921.58587,1.89390
920.55617,1.89405
919.52646,1.89422
918.49676,1.89441
917.46705,1.89461
916.43735,1.89481
915.40764,1.89501
914.37794,1.89520
913.34823,1.89537
912.31853,1.89553
911.28882,1.89567
910.25912,1.89581
909.22941,1.89592
908.19971,1.89601
907.17000,1.89607
906.14030,1.89609
905.11059,1.89607
904.08089,1.89600
903.05118,1.89588
902.02148,1.89572
900.99177,1.89552
899.96207,1.89528
898.93236,1.89502
897.90266,1.89473
896.87295,1.89442
895.84325,1.89410
894.81355,1.89377
893.78384,1.89344
892.75414,1.89311
891.72443,1.89278
890.69473,1.89248
889.66502,1.89220
888.63532,1.89195
887.60561,1.89174
886.57591,1.89156
885.54620,1.89140
884.51650,1.89126
883.48679,1.89114
882.45709,1.89103
881.42738,1.89093
880.39768,1.89083
879.36797,1.89073
878.33827,1.89063
877.30856,1.89052
876.27886,1.89042
875.24915,1.89031
874.21945,1.89018
873.18974,1.89004
872.16004,1.88988
871.13033,1.88970
870.10063,1.88948
869.07092,1.88925
868.04122,1.88899
867.01151,1.88871
865.98181,1.88842
864.95210,1.88812
863.92240,1.88780
862.89269,1.88745
861.86299,1.88709
860.83328,1.88671
859.80358,1.88631
858.77387,1.88590
857.74417,1.88548
856.71446,1.88504
855.68476,1.88460
854.65505,1.88416
853.62535,1.88372
852.59564,1.88327
851.56594,1.88283
850.53624,1.88239
849.50653,1.88196
848.47683,1.88154
847.44712,1.88111
846.41742,1.88069
845.38771,1.88027
844.35801,1.87985
843.32830,1.87943
842.29860,1.87902
841.26889,1.87860
840.23919,1.87817
839.20948,1.87773
838.17978,1.87727
837.15007,1.87680
836.12037,1.87630
835.09066,1.87579
834.06096,1.87525
833.03125,1.87470
832.00155,1.87414
830.97184,1.87357
829.94214,1.87301
828.91243,1.87246
827.88273,1.87194
826.85302,1.87146
825.82332,1.87103
824.79361,1.87066
823.76391,1.87034
822.73420,1.87008
821.70450,1.86990
820.67479,1.86980
819.64509,1.86978
818.61538,1.86986
817.58568,1.87002
816.55597,1.87025
815.52627,1.87056
814.49656,1.87092
813.46686,1.87132
812.43715,1.87173
811.40745,1.87214
810.37774,1.87254
809.34804,1.87292
808.31833,1.87326
807.28863,1.87356
806.25893,1.87380
805.22922,1.87398
804.19952,1.87411
803.16981,1.87418
802.14011,1.87418
801.11040,1.87411
800.08070,1.87398
799.05099,1.87378
798.02129,1.87355
796.99158,1.87329
795.96188,1.87302
794.93217,1.87275
793.90247,1.87248
792.87276,1.87221
791.84306,1.87194
790.81335,1.87167
789.78365,1.87141
788.75394,1.87115
787.72424,1.87090
786.69453,1.87066
785.66483,1.87043
784.63512,1.87023
783.60542,1.87006
782.57571,1.86993
781.54601,1.86986
780.51630,1.86985
779.48660,1.86990
778.45689,1.87002
777.42719,1.87018
776.39748,1.87040
775.36778,1.87067
774.33807,1.87099
773.30837,1.87135
772.27866,1.87174
771.24896,1.87214
770.21925,1.87253
769.18955,1.87290
768.15984,1.87323
767.13014,1.87351
766.10043,1.87373
765.07073,1.87386
764.04102,1.87390
763.01132,1.87385
761.98161,1.87372
760.95191,1.87350
759.92221,1.87321
758.89250,1.87289
757.86280,1.87254
756.83309,1.87219
755.80339,1.87184
754.77368,1.87152
753.74398,1.87124
752.71427,1.87102
751.68457,1.87087
750.65486,1.87081
749.62516,1.87083
748.59545,1.87094
747.56575,1.87115
746.53604,1.87145
745.50634,1.87182
744.47663,1.87226
743.44693,1.87275
742.41722,1.87325
741.38752,1.87373
740.35781,1.87417
739.32811,1.87452
738.29840,1.87477
737.26870,1.87488
736.23899,1.87484
735.20929,1.87463
734.17958,1.87424
733.14988,1.87365
732.12017,1.87288
731.09047,1.87192
730.06076,1.87079
729.03106,1.86952
728.00135,1.86812
726.97165,1.86661
725.94194,1.86503
724.91224,1.86341
723.88253,1.86180
722.85283,1.86023
721.82312,1.85875
720.79342,1.85737
719.76371,1.85612
718.73401,1.85503
717.70430,1.85410
716.67460,1.85335
715.64490,1.85278
714.61519,1.85238
713.58549,1.85214
712.55578,1.85205
711.52608,1.85209
710.49637,1.85225
709.46667,1.85252
708.43696,1.85289
707.40726,1.85333
706.37755,1.85382
705.34785,1.85434
704.31814,1.85486
703.28844,1.85537
702.25873,1.85584
701.22903,1.85629
700.19932,1.85670
699.16962,1.85708
698.13991,1.85743
697.11021,1.85774
696.08050,1.85801
695.05080,1.85825
694.02109,1.85846
692.99139,1.85862
691.96168,1.85875
690.93198,1.85883
689.90227,1.85885
688.87257,1.85881
687.84286,1.85870
686.81316,1.85851
685.78345,1.85825
684.75375,1.85789
683.72404,1.85743
682.69434,1.85685
681.66463,1.85615
680.63493,1.85532
679.60522,1.85437
678.57552,1.85332
677.54581,1.85220
676.51611,1.85103
675.48640,1.84985
674.45670,1.84870
673.42699,1.84760
672.39729,1.84659
671.36759,1.84572
670.33788,1.84500
669.30818,1.84448
668.27847,1.84418
667.24877,1.84410
666.21906,1.84424
665.18936,1.84458
664.15965,1.84510
663.12995,1.84578
662.10024,1.84657
661.07054,1.84742
660.04083,1.84829
659.01113,1.84913
657.98142,1.84988
656.95172,1.85051
655.92201,1.85100
654.89231,1.85133
653.86260,1.85147
652.83290,1.85143
651.80319,1.85120
650.77349,1.85078
649.74378,1.85019
648.71408,1.84944
647.68437,1.84857
646.65467,1.84761
645.62496,1.84659
644.59526,1.84554
643.56555,1.84447
642.53585,1.84341
641.50614,1.84236
640.47644,1.84132
639.44673,1.84032
638.41703,1.83936
637.38732,1.83846
636.35762,1.83764
635.32791,1.83692
634.29821,1.83631
633.26850,1.83583
632.23880,1.83548
631.20909,1.83527
630.17939,1.83517
629.14968,1.83516
628.11998,1.83522
627.09028,1.83533
626.06057,1.83545
625.03087,1.83558
624.00116,1.83569
622.97146,1.83572
621.94175,1.83565
620.91205,1.83549
619.88234,1.83523
618.85264,1.83489
617.82293,1.83445
616.79323,1.83394
615.76352,1.83337
614.73382,1.83275
613.70411,1.83213
612.67441,1.83151
611.64470,1.83095
610.61500,1.83095
609.58529,1.83095
608.55559,1.83095
607.52588,1.83095
606.49618,1.83095
605.46647,1.83095
604.43677,1.83095
603.40706,1.83095
602.37736,1.83095
601.34765,1.83095
600.31795,1.83095
599.28824,1.83095
