5998.03096,1.75518
5997.00125,1.75518
5995.97155,1.75518
5994.94184,1.75518
5993.91214,1.75518
5992.88243,1.75518
5991.85273,1.75518
5990.82302,1.75518
5989.79332,1.75518
5988.76361,1.75518
5987.73391,1.75518
5986.70420,1.75518
5985.67450,1.75518
5984.64479,1.75624
5983.61509,1.75760
5982.58538,1.75916
5981.55568,1.76090
5980.52597,1.76274
5979.49627,1.76455
5978.46656,1.76636
5977.43686,1.76827
5976.40715,1.77030
5975.37745,1.77232
5974.34774,1.77418
5973.31804,1.77580
5972.28833,1.77721
5971.25863,1.77831
5970.22892,1.77892
5969.19922,1.77889
5968.16951,1.77832
5967.13981,1.77740
5966.11010,1.77625
5965.08040,1.77500
5964.05069,1.77379
5963.02099,1.77284
5961.99128,1.77232
5960.96158,1.77208
5959.93187,1.77177
5958.90217,1.77126
5957.87247,1.77064
5956.84276,1.76996
5955.81306,1.76915
5954.78335,1.76831
5953.75365,1.76769
5952.72394,1.76747
5951.69424,1.76761
5950.66453,1.76802
5949.63483,1.76870
5948.60512,1.76976
5947.57542,1.77120
5946.54571,1.77294
5945.51601,1.77490
5944.48630,1.77709
5943.45660,1.77954
5942.42689,1.78227
5941.39719,1.78526
5940.36748,1.78845
5939.33778,1.79166
5938.30807,1.79475
5937.27837,1.79757
5936.24866,1.79991
5935.21896,1.80169
5934.18925,1.80285
5933.15955,1.80332
5932.12984,1.80319
5931.10014,1.80272
5930.07043,1.80212
5929.04073,1.80156
5928.01102,1.80117
5926.98132,1.80089
5925.95161,1.80072
5924.92191,1.80069
5923.89220,1.80083
5922.86250,1.80121
5921.83279,1.80186
5920.80309,1.80266
5919.77338,1.80345
5918.74368,1.80417
5917.71397,1.80485
5916.68427,1.80534
5915.65456,1.80537
5914.62486,1.80474
5913.59515,1.80354
5912.56545,1.80195
5911.53575,1.79995
5910.50604,1.79750
5909.47634,1.79466
5908.44663,1.79162
5907.41693,1.78865
5906.38722,1.78591
5905.35752,1.78342
5904.32781,1.78134
5903.29811,1.77978
5902.26840,1.77881
5901.23870,1.77855
5900.20899,1.77905
5899.17929,1.78021
5898.14958,1.78196
5897.11988,1.78414
5896.09017,1.78651
5895.06047,1.78899
5894.03076,1.79168
5893.00106,1.79453
5891.97135,1.79732
5890.94165,1.79990
5889.91194,1.80226
5888.88224,1.80455
5887.85253,1.80675
5886.82283,1.80858
5885.79312,1.80996
5884.76342,1.81102
5883.73371,1.81180
5882.70401,1.81234
5881.67430,1.81285
5880.64460,1.81359
5879.61489,1.81469
5878.58519,1.81612
5877.55548,1.81771
5876.52578,1.81929
5875.49607,1.82065
5874.46637,1.82161
5873.43666,1.82214
5872.40696,1.82233
5871.37725,1.82218
5870.34755,1.82171
5869.31784,1.82106
5868.28814,1.82023
5867.25844,1.81909
5866.22873,1.81756
5865.19903,1.81572
5864.16932,1.81376
5863.13962,1.81172
5862.10991,1.80958
5861.08021,1.80762
5860.05050,1.80619
5859.02080,1.80537
5857.99109,1.80525
5856.96139,1.80586
5855.93168,1.80702
5854.90198,1.80849
5853.87227,1.81012
5852.84257,1.81176
5851.81286,1.81337
5850.78316,1.81493
5849.75345,1.81635
5848.72375,1.81758
5847.69404,1.81859
5846.66434,1.81922
5845.63463,1.81933
5844.60493,1.81905
5843.57522,1.81856
5842.54552,1.81788
5841.51581,1.81707
5840.48611,1.81631
5839.45640,1.81573
5838.42670,1.81543
5837.39699,1.81551
5836.36729,1.81611
5835.33758,1.81727
5834.30788,1.81876
5833.27817,1.82036
5832.24847,1.82193
5831.21876,1.82349
5830.18906,1.82512
5829.15935,1.82680
5828.12965,1.82846
5827.09994,1.83012
5826.07024,1.83174
5825.04053,1.83315
5824.01083,1.83424
5822.98113,1.83492
5821.95142,1.83513
5820.92172,1.83494
5819.89201,1.83459
5818.86231,1.83423
5817.83260,1.83381
5816.80290,1.83325
5815.77319,1.83254
5814.74349,1.83176
5813.71378,1.83099
5812.68408,1.83028
5811.65437,1.82966
5810.62467,1.82904
5809.59496,1.82830
5808.56526,1.82740
5807.53555,1.82648
5806.50585,1.82560
5805.47614,1.82468
5804.44644,1.82364
5803.41673,1.82258
5802.38703,1.82172
5801.35732,1.82117
5800.32762,1.82083
5799.29791,1.82065
5798.26821,1.82075
5797.23850,1.82123
5796.20880,1.82213
5795.17909,1.82341
5794.14939,1.82498
5793.11968,1.82669
5792.08998,1.82842
5791.06027,1.83019
5790.03057,1.83205
5789.00086,1.83400
5787.97116,1.83605
5786.94145,1.83805
5785.91175,1.83988
5784.88204,1.84143
5783.85234,1.84271
5782.82263,1.84363
5781.79293,1.84404
5780.76322,1.84379
5779.73352,1.84297
5778.70382,1.84183
5777.67411,1.84062
5776.64441,1.83938
5775.61470,1.83808
5774.58500,1.83684
5773.55529,1.83580
5772.52559,1.83481
5771.49588,1.83375
5770.46618,1.83258
5769.43647,1.83129
5768.40677,1.82988
5767.37706,1.82846
5766.34736,1.82716
5765.31765,1.82603
5764.28795,1.82513
5763.25824,1.82446
5762.22854,1.82399
5761.19883,1.82371
5760.16913,1.82358
5759.13942,1.82351
5758.10972,1.82336
5757.08001,1.82299
5756.05031,1.82238
5755.02060,1.82169
5753.99090,1.82114
5752.96119,1.82076
5751.93149,1.82046
5750.90178,1.82022
5749.87208,1.82011
5748.84237,1.82007
5747.81267,1.82004
5746.78296,1.82009
5745.75326,1.82023
5744.72355,1.82043
5743.69385,1.82072
5742.66414,1.82118
5741.63444,1.82181
5740.60473,1.82258
5739.57503,1.82347
5738.54532,1.82442
5737.51562,1.82541
5736.48591,1.82641
5735.45621,1.82729
5734.42650,1.82791
5733.39680,1.82813
5732.36710,1.82789
5731.33739,1.82732
5730.30769,1.82662
5729.27798,1.82587
5728.24828,1.82503
5727.21857,1.82412
5726.18887,1.82326
5725.15916,1.82256
5724.12946,1.82197
5723.09975,1.82146
5722.07005,1.82108
5721.04034,1.82078
5720.01064,1.82046
5718.98093,1.82014
5717.95123,1.81988
5716.92152,1.81964
5715.89182,1.81936
5714.86211,1.81904
5713.83241,1.81869
5712.80270,1.81831
5711.77300,1.81789
5710.74329,1.81737
5709.71359,1.81666
5708.68388,1.81575
5707.65418,1.81474
5706.62447,1.81382
5705.59477,1.81306
5704.56506,1.81245
5703.53536,1.81199
5702.50565,1.81170
5701.47595,1.81154
5700.44624,1.81149
5699.41654,1.81146
5698.38683,1.81148
5697.35713,1.81158
5696.32742,1.81172
5695.29772,1.81187
5694.26801,1.81210
5693.23831,1.81250
5692.20860,1.81299
5691.17890,1.81357
5690.14919,1.81427
5689.11949,1.81501
5688.08979,1.81568
5687.06008,1.81630
5686.03038,1.81682
5685.00067,1.81712
5683.97097,1.81717
5682.94126,1.81703
5681.91156,1.81685
5680.88185,1.81667
5679.85215,1.81648
5678.82244,1.81628
5677.79274,1.81604
5676.76303,1.81576
5675.73333,1.81549
5674.70362,1.81524
5673.67392,1.81511
5672.64421,1.81515
5671.61451,1.81531
5670.58480,1.81558
5669.55510,1.81600
5668.52539,1.81664
5667.49569,1.81748
5666.46598,1.81850
5665.43628,1.81952
5664.40657,1.82035
5663.37687,1.82094
5662.34716,1.82129
5661.31746,1.82133
5660.28775,1.82102
5659.25805,1.82051
5658.22834,1.81998
5657.19864,1.81953
5656.16893,1.81910
5655.13923,1.81866
5654.10952,1.81823
5653.07982,1.81787
5652.05011,1.81754
5651.02041,1.81716
5649.99070,1.81675
5648.96100,1.81628
5647.93129,1.81563
5646.90159,1.81476
5645.87188,1.81381
5644.84218,1.81284
5643.81248,1.81187
5642.78277,1.81084
5641.75307,1.80966
5640.72336,1.80818
5639.69366,1.80638
5638.66395,1.80435
5637.63425,1.80224
5636.60454,1.80020
5635.57484,1.79839
5634.54513,1.79696
5633.51543,1.79592
5632.48572,1.79527
5631.45602,1.79496
5630.42631,1.79501
5629.39661,1.79544
5628.36690,1.79618
5627.33720,1.79709
5626.30749,1.79807
5625.27779,1.79901
5624.24808,1.79976
5623.21838,1.80031
5622.18867,1.80070
5621.15897,1.80100
5620.12926,1.80119
5619.09956,1.80126
5618.06985,1.80118
5617.04015,1.80089
5616.01044,1.80042
5614.98074,1.79989
5613.95103,1.79948
5612.92133,1.79929
5611.89162,1.79940
5610.86192,1.79974
5609.83221,1.80025
5608.80251,1.80088
5607.77280,1.80163
5606.74310,1.80249
5605.71339,1.80346
5604.68369,1.80449
5603.65398,1.80551
5602.62428,1.80640
5601.59457,1.80698
5600.56487,1.80710
5599.53517,1.80680
5598.50546,1.80613
5597.47576,1.80520
5596.44605,1.80420
5595.41635,1.80315
5594.38664,1.80195
5593.35694,1.80056
5592.32723,1.79917
5591.29753,1.79794
5590.26782,1.79693
5589.23812,1.79616
5588.20841,1.79558
5587.17871,1.79519
5586.14900,1.79495
5585.11930,1.79484
5584.08959,1.79493
5583.05989,1.79525
5582.03018,1.79572
5581.00048,1.79625
5579.97077,1.79681
5578.94107,1.79737
5577.91136,1.79777
5576.88166,1.79792
5575.85195,1.79785
5574.82225,1.79757
5573.79254,1.79716
5572.76284,1.79678
5571.73313,1.79641
5570.70343,1.79585
5569.67372,1.79503
5568.64402,1.79414
5567.61431,1.79345
5566.58461,1.79297
5565.55490,1.79266
5564.52520,1.79257
5563.49549,1.79282
5562.46579,1.79349
5561.43608,1.79453
5560.40638,1.79582
5559.37667,1.79722
5558.34697,1.79859
5557.31726,1.79979
5556.28756,1.80078
5555.25785,1.80161
5554.22815,1.80228
5553.19845,1.80265
5552.16874,1.80265
5551.13904,1.80226
5550.10933,1.80154
5549.07963,1.80060
5548.04992,1.79951
5547.02022,1.79823
5545.99051,1.79678
5544.96081,1.79534
5543.93110,1.79414
5542.90140,1.79324
5541.87169,1.79264
5540.84199,1.79244
5539.81228,1.79275
5538.78258,1.79360
5537.75287,1.79487
5536.72317,1.79631
5535.69346,1.79775
5534.66376,1.79914
5533.63405,1.80048
5532.60435,1.80175
5531.57464,1.80295
5530.54494,1.80414
5529.51523,1.80529
5528.48553,1.80630
5527.45582,1.80707
5526.42612,1.80764
5525.39641,1.80807
5524.36671,1.80839
5523.33700,1.80860
5522.30730,1.80874
5521.27759,1.80881
5520.24789,1.80882
5519.21818,1.80878
5518.18848,1.80871
5517.15877,1.80858
5516.12907,1.80838
5515.09936,1.80804
5514.06966,1.80747
5513.03995,1.80664
5512.01025,1.80554
5510.98054,1.80430
5509.95084,1.80302
5508.92114,1.80171
5507.89143,1.80045
5506.86173,1.79935
5505.83202,1.79853
5504.80232,1.79798
5503.77261,1.79760
5502.74291,1.79735
5501.71320,1.79731
5500.68350,1.79748
5499.65379,1.79777
5498.62409,1.79814
5497.59438,1.79863
5496.56468,1.79926
5495.53497,1.80000
5494.50527,1.80075
5493.47556,1.80134
5492.44586,1.80162
5491.41615,1.80156
5490.38645,1.80121
5489.35674,1.80065
5488.32704,1.79990
5487.29733,1.79897
5486.26763,1.79790
5485.23792,1.79671
5484.20822,1.79541
5483.17851,1.79409
5482.14881,1.79287
5481.11910,1.79181
5480.08940,1.79094
5479.05969,1.79032
5478.02999,1.78997
5477.00028,1.78989
5475.97058,1.79005
5474.94087,1.79043
5473.91117,1.79105
5472.88146,1.79197
5471.85176,1.79327
5470.82205,1.79484
5469.79235,1.79648
5468.76264,1.79810
5467.73294,1.79976
5466.70323,1.80145
5465.67353,1.80315
5464.64383,1.80473
5463.61412,1.80605
5462.58442,1.80698
5461.55471,1.80749
5460.52501,1.80754
5459.49530,1.80715
5458.46560,1.80647
5457.43589,1.80562
5456.40619,1.80464
5455.37648,1.80357
5454.34678,1.80248
5453.31707,1.80135
5452.28737,1.80017
5451.25766,1.79899
5450.22796,1.79783
5449.19825,1.79676
5448.16855,1.79590
5447.13884,1.79530
5446.10914,1.79481
5445.07943,1.79438
5444.04973,1.79409
5443.02002,1.79392
5441.99032,1.79377
5440.96061,1.79358
5439.93091,1.79331
5438.90120,1.79293
5437.87150,1.79243
5436.84179,1.79184
5435.81209,1.79118
5434.78238,1.79048
5433.75268,1.78981
5432.72297,1.78915
5431.69327,1.78849
5430.66356,1.78791
5429.63386,1.78750
5428.60415,1.78731
5427.57445,1.78734
5426.54474,1.78760
5425.51504,1.78809
5424.48533,1.78877
5423.45563,1.78958
5422.42592,1.79048
5421.39622,1.79150
5420.36652,1.79271
5419.33681,1.79415
5418.30711,1.79572
5417.27740,1.79729
5416.24770,1.79886
5415.21799,1.80041
5414.18829,1.80179
5413.15858,1.80289
5412.12888,1.80370
5411.09917,1.80422
5410.06947,1.80441
5409.03976,1.80427
5408.01006,1.80389
5406.98035,1.80335
5405.95065,1.80276
5404.92094,1.80222
5403.89124,1.80176
5402.86153,1.80132
5401.83183,1.80087
5400.80212,1.80038
5399.77242,1.79981
5398.74271,1.79920
5397.71301,1.79867
5396.68330,1.79826
5395.65360,1.79793
5394.62389,1.79767
5393.59419,1.79731
5392.56448,1.79676
5391.53478,1.79604
5390.50507,1.79513
5389.47537,1.79399
5388.44566,1.79270
5387.41596,1.79133
5386.38625,1.78990
5385.35655,1.78838
5384.32684,1.78689
5383.29714,1.78561
5382.26743,1.78458
5381.23773,1.78383
5380.20802,1.78340
5379.17832,1.78323
5378.14861,1.78317
5377.11891,1.78316
5376.08920,1.78318
5375.05950,1.78324
5374.02980,1.78342
5373.00009,1.78379
5371.97039,1.78429
5370.94068,1.78491
5369.91098,1.78564
5368.88127,1.78632
5367.85157,1.78689
5366.82186,1.78749
5365.79216,1.78815
5364.76245,1.78883
5363.73275,1.78945
5362.70304,1.79002
5361.67334,1.79057
5360.64363,1.79111
5359.61393,1.79171
5358.58422,1.79241
5357.55452,1.79323
5356.52481,1.79412
5355.49511,1.79499
5354.46540,1.79569
5353.43570,1.79615
5352.40599,1.79640
5351.37629,1.79651
5350.34658,1.79657
5349.31688,1.79668
5348.28717,1.79682
5347.25747,1.79695
5346.22776,1.79710
5345.19806,1.79716
5344.16835,1.79698
5343.13865,1.79659
5342.10894,1.79608
5341.07924,1.79536
5340.04953,1.79435
5339.01983,1.79307
5337.99012,1.79161
5336.96042,1.79007
5335.93071,1.78852
5334.90101,1.78708
5333.87130,1.78591
5332.84160,1.78501
5331.81189,1.78424
5330.78219,1.78351
5329.75249,1.78284
5328.72278,1.78226
5327.69308,1.78186
5326.66337,1.78172
5325.63367,1.78191
5324.60396,1.78240
5323.57426,1.78313
5322.54455,1.78411
5321.51485,1.78533
5320.48514,1.78661
5319.45544,1.78779
5318.42573,1.78887
5317.39603,1.78984
5316.36632,1.79069
5315.33662,1.79141
5314.30691,1.79204
5313.27721,1.79261
5312.24750,1.79316
5311.21780,1.79364
5310.18809,1.79403
5309.15839,1.79434
5308.12868,1.79457
5307.09898,1.79472
5306.06927,1.79485
5305.03957,1.79508
5304.00986,1.79543
5302.98016,1.79597
5301.95045,1.79671
5300.92075,1.79755
5299.89104,1.79848
5298.86134,1.79953
5297.83163,1.80078
5296.80193,1.80224
5295.77222,1.80380
5294.74252,1.80535
5293.71281,1.80686
5292.68311,1.80832
5291.65340,1.80963
5290.62370,1.81075
5289.59399,1.81164
5288.56429,1.81222
5287.53458,1.81241
5286.50488,1.81226
5285.47518,1.81193
5284.44547,1.81158
5283.41577,1.81130
5282.38606,1.81109
5281.35636,1.81094
5280.32665,1.81092
5279.29695,1.81107
5278.26724,1.81140
5277.23754,1.81185
5276.20783,1.81242
5275.17813,1.81320
5274.14842,1.81429
5273.11872,1.81568
5272.08901,1.81736
5271.05931,1.81914
5270.02960,1.82075
5268.99990,1.82206
5267.97019,1.82311
5266.94049,1.82399
5265.91078,1.82471
5264.88108,1.82521
5263.85137,1.82547
5262.82167,1.82554
5261.79196,1.82551
5260.76226,1.82542
5259.73255,1.82522
5258.70285,1.82490
5257.67314,1.82450
5256.64344,1.82411
5255.61373,1.82383
5254.58403,1.82368
5253.55432,1.82370
5252.52462,1.82396
5251.49491,1.82452
5250.46521,1.82540
5249.43550,1.82652
5248.40580,1.82780
5247.37609,1.82912
5246.34639,1.83039
5245.31668,1.83156
5244.28698,1.83281
5243.25727,1.83436
5242.22757,1.83618
5241.19786,1.83813
5240.16816,1.84013
5239.13846,1.84216
5238.10875,1.84412
5237.07905,1.84596
5236.04934,1.84755
5235.01964,1.84878
5233.98993,1.84969
5232.96023,1.85029
5231.93052,1.85057
5230.90082,1.85056
5229.87111,1.85041
5228.84141,1.85027
5227.81170,1.85014
5226.78200,1.84990
5225.75229,1.84942
5224.72259,1.84872
5223.69288,1.84793
5222.66318,1.84722
5221.63347,1.84671
5220.60377,1.84645
5219.57406,1.84648
5218.54436,1.84674
5217.51465,1.84720
5216.48495,1.84787
5215.45524,1.84876
5214.42554,1.84982
5213.39583,1.85100
5212.36613,1.85224
5211.33642,1.85336
5210.30672,1.85427
5209.27701,1.85494
5208.24731,1.85540
5207.21760,1.85577
5206.18790,1.85621
5205.15819,1.85680
5204.12849,1.85747
5203.09878,1.85811
5202.06908,1.85872
5201.03937,1.85940
5200.00967,1.86030
5198.97996,1.86148
5197.95026,1.86282
5196.92055,1.86411
5195.89085,1.86518
5194.86115,1.86605
5193.83144,1.86675
5192.80174,1.86737
5191.77203,1.86790
5190.74233,1.86830
5189.71262,1.86854
5188.68292,1.86859
5187.65321,1.86836
5186.62351,1.86769
5185.59380,1.86657
5184.56410,1.86511
5183.53439,1.86357
5182.50469,1.86218
5181.47498,1.86101
5180.44528,1.86009
5179.41557,1.85946
5178.38587,1.85923
5177.35616,1.85956
5176.32646,1.86043
5175.29675,1.86173
5174.26705,1.86333
5173.23734,1.86513
5172.20764,1.86705
5171.17793,1.86906
5170.14823,1.87119
5169.11852,1.87341
5168.08882,1.87560
5167.05911,1.87766
5166.02941,1.87953
5164.99970,1.88112
5163.97000,1.88229
5162.94029,1.88300
5161.91059,1.88321
5160.88088,1.88294
5159.85118,1.88233
5158.82147,1.88153
5157.79177,1.88063
5156.76206,1.87963
5155.73236,1.87860
5154.70265,1.87765
5153.67295,1.87689
5152.64324,1.87639
5151.61354,1.87603
5150.58384,1.87577
5149.55413,1.87560
5148.52443,1.87551
5147.49472,1.87545
5146.46502,1.87541
5145.43531,1.87541
5144.40561,1.87537
5143.37590,1.87525
5142.34620,1.87504
5141.31649,1.87477
5140.28679,1.87436
5139.25708,1.87384
5138.22738,1.87329
5137.19767,1.87272
5136.16797,1.87210
5135.13826,1.87156
5134.10856,1.87128
5133.07885,1.87130
5132.04915,1.87164
5131.01944,1.87232
5129.98974,1.87337
5128.96003,1.87475
5127.93033,1.87628
5126.90062,1.87774
5125.87092,1.87897
5124.84121,1.87988
5123.81151,1.88044
5122.78180,1.88064
5121.75210,1.88045
5120.72239,1.87981
5119.69269,1.87873
5118.66298,1.87723
5117.63328,1.87533
5116.60357,1.87307
5115.57387,1.87048
5114.54416,1.86763
5113.51446,1.86462
5112.48475,1.86154
5111.45505,1.85858
5110.42534,1.85593
5109.39564,1.85369
5108.36593,1.85190
5107.33623,1.85060
5106.30653,1.84981
5105.27682,1.84956
5104.24712,1.84976
5103.21741,1.85022
5102.18771,1.85080
5101.15800,1.85149
5100.12830,1.85238
5099.09859,1.85349
5098.06889,1.85476
5097.03918,1.85614
5096.00948,1.85761
5094.97977,1.85911
5093.95007,1.86056
5092.92036,1.86191
5091.89066,1.86313
5090.86095,1.86421
5089.83125,1.86514
5088.80154,1.86595
5087.77184,1.86662
5086.74213,1.86713
5085.71243,1.86746
5084.68272,1.86765
5083.65302,1.86772
5082.62331,1.86760
5081.59361,1.86731
5080.56390,1.86692
5079.53420,1.86641
5078.50449,1.86570
5077.47479,1.86493
5076.44508,1.86425
5075.41538,1.86375
5074.38567,1.86332
5073.35597,1.86287
5072.32626,1.86246
5071.29656,1.86215
5070.26685,1.86199
5069.23715,1.86202
5068.20744,1.86224
5067.17774,1.86260
5066.14803,1.86304
5065.11833,1.86348
5064.08862,1.86384
5063.05892,1.86406
5062.02921,1.86412
5060.99951,1.86405
5059.96981,1.86383
5058.94010,1.86341
5057.91040,1.86288
5056.88069,1.86237
5055.85099,1.86198
5054.82128,1.86164
5053.79158,1.86132
5052.76187,1.86102
5051.73217,1.86076
5050.70246,1.86048
5049.67276,1.86007
5048.64305,1.85952
5047.61335,1.85903
5046.58364,1.85874
5045.55394,1.85861
5044.52423,1.85852
5043.49453,1.85832
5042.46482,1.85795
5041.43512,1.85742
5040.40541,1.85675
5039.37571,1.85599
5038.34600,1.85513
5037.31630,1.85420
5036.28659,1.85325
5035.25689,1.85240
5034.22718,1.85177
5033.19748,1.85140
5032.16777,1.85126
5031.13807,1.85130
5030.10836,1.85138
5029.07866,1.85143
5028.04895,1.85148
5027.01925,1.85164
5025.98954,1.85187
5024.95984,1.85209
5023.93013,1.85235
5022.90043,1.85271
5021.87072,1.85311
5020.84102,1.85338
5019.81131,1.85338
5018.78161,1.85301
5017.75190,1.85231
5016.72220,1.85134
5015.69250,1.85013
5014.66279,1.84870
5013.63309,1.84706
5012.60338,1.84530
5011.57368,1.84354
5010.54397,1.84184
5009.51427,1.84022
5008.48456,1.83871
5007.45486,1.83739
5006.42515,1.83629
5005.39545,1.83541
5004.36574,1.83481
5003.33604,1.83458
5002.30633,1.83473
5001.27663,1.83517
5000.24692,1.83587
4999.21722,1.83679
4998.18751,1.83786
4997.15781,1.83894
4996.12810,1.83990
4995.09840,1.84059
4994.06869,1.84092
4993.03899,1.84092
4992.00928,1.84069
4990.97958,1.84025
4989.94987,1.83968
4988.92017,1.83906
4987.89046,1.83848
4986.86076,1.83801
4985.83105,1.83775
4984.80135,1.83775
4983.77164,1.83806
4982.74194,1.83865
4981.71223,1.83946
4980.68253,1.84047
4979.65282,1.84165
4978.62312,1.84291
4977.59341,1.84420
4976.56371,1.84549
4975.53400,1.84673
4974.50430,1.84783
4973.47459,1.84863
4972.44489,1.84905
4971.41519,1.84902
4970.38548,1.84850
4969.35578,1.84761
4968.32607,1.84651
4967.29637,1.84529
4966.26666,1.84404
4965.23696,1.84287
4964.20725,1.84186
4963.17755,1.84103
4962.14784,1.84048
4961.11814,1.84021
4960.08843,1.84018
4959.05873,1.84033
4958.02902,1.84061
4956.99932,1.84101
4955.96961,1.84151
4954.93991,1.84205
4953.91020,1.84260
4952.88050,1.84316
4951.85079,1.84372
4950.82109,1.84422
4949.79138,1.84453
4948.76168,1.84457
4947.73197,1.84433
4946.70227,1.84384
4945.67256,1.84318
4944.64286,1.84249
4943.61315,1.84182
4942.58345,1.84118
4941.55374,1.84061
4940.52404,1.84013
4939.49433,1.83976
4938.46463,1.83956
4937.43492,1.83958
4936.40522,1.83978
4935.37551,1.84003
4934.34581,1.84030
4933.31610,1.84054
4932.28640,1.84077
4931.25669,1.84099
4930.22699,1.84121
4929.19728,1.84141
4928.16758,1.84163
4927.13788,1.84186
4926.10817,1.84207
4925.07847,1.84218
4924.04876,1.84218
4923.01906,1.84209
4921.98935,1.84196
4920.95965,1.84185
4919.92994,1.84180
4918.90024,1.84175
4917.87053,1.84161
4916.84083,1.84139
4915.81112,1.84113
4914.78142,1.84094
4913.75171,1.84087
4912.72201,1.84085
4911.69230,1.84080
4910.66260,1.84063
4909.63289,1.84037
4908.60319,1.84006
4907.57348,1.83980
4906.54378,1.83960
4905.51407,1.83948
4904.48437,1.83945
4903.45466,1.83956
4902.42496,1.83980
4901.39525,1.84014
4900.36555,1.84057
4899.33584,1.84109
4898.30614,1.84165
4897.27643,1.84219
4896.24673,1.84269
4895.21702,1.84306
4894.18732,1.84319
4893.15761,1.84308
4892.12791,1.84280
4891.09820,1.84242
4890.06850,1.84195
4889.03879,1.84138
4888.00909,1.84074
4886.97938,1.84005
4885.94968,1.83928
4884.91997,1.83846
4883.89027,1.83765
4882.86056,1.83687
4881.83086,1.83615
4880.80116,1.83551
4879.77145,1.83501
4878.74175,1.83463
4877.71204,1.83439
4876.68234,1.83438
4875.65263,1.83457
4874.62293,1.83487
4873.59322,1.83519
4872.56352,1.83553
4871.53381,1.83586
4870.50411,1.83612
4869.47440,1.83630
4868.44470,1.83646
4867.41499,1.83660
4866.38529,1.83672
4865.35558,1.83687
4864.32588,1.83707
4863.29617,1.83733
4862.26647,1.83755
4861.23676,1.83768
4860.20706,1.83780
4859.17735,1.83798
4858.14765,1.83822
4857.11794,1.83849
4856.08824,1.83876
4855.05853,1.83896
4854.02883,1.83910
4852.99912,1.83927
4851.96942,1.83947
4850.93971,1.83956
4849.91001,1.83948
4848.88030,1.83928
4847.85060,1.83899
4846.82089,1.83860
4845.79119,1.83809
4844.76148,1.83746
4843.73178,1.83672
4842.70207,1.83591
4841.67237,1.83505
4840.64266,1.83418
4839.61296,1.83334
4838.58325,1.83258
4837.55355,1.83199
4836.52385,1.83169
4835.49414,1.83175
4834.46444,1.83208
4833.43473,1.83257
4832.40503,1.83310
4831.37532,1.83369
4830.34562,1.83439
4829.31591,1.83525
4828.28621,1.83629
4827.25650,1.83740
4826.22680,1.83851
4825.19709,1.83961
4824.16739,1.84073
4823.13768,1.84181
4822.10798,1.84278
4821.07827,1.84357
4820.04857,1.84420
4819.01886,1.84467
4817.98916,1.84499
4816.95945,1.84516
4815.92975,1.84522
4814.90004,1.84524
4813.87034,1.84529
4812.84063,1.84541
4811.81093,1.84559
4810.78122,1.84573
4809.75152,1.84574
4808.72181,1.84561
4807.69211,1.84541
4806.66240,1.84528
4805.63270,1.84525
4804.60299,1.84533
4803.57329,1.84548
4802.54358,1.84562
4801.51388,1.84571
4800.48417,1.84575
4799.45447,1.84579
4798.42476,1.84581
4797.39506,1.84581
4796.36535,1.84580
4795.33565,1.84579
4794.30594,1.84575
4793.27624,1.84563
4792.24654,1.84543
4791.21683,1.84519
4790.18713,1.84498
4789.15742,1.84481
4788.12772,1.84466
4787.09801,1.84449
4786.06831,1.84425
4785.03860,1.84399
4784.00890,1.84381
4782.97919,1.84377
4781.94949,1.84391
4780.91978,1.84415
4779.89008,1.84445
4778.86037,1.84479
4777.83067,1.84514
4776.80096,1.84552
4775.77126,1.84597
4774.74155,1.84649
4773.71185,1.84706
4772.68214,1.84763
4771.65244,1.84819
4770.62273,1.84870
4769.59303,1.84915
4768.56332,1.84951
4767.53362,1.84983
4766.50391,1.85011
4765.47421,1.85033
4764.44450,1.85042
4763.41480,1.85034
4762.38509,1.85010
4761.35539,1.84976
4760.32568,1.84943
4759.29598,1.84914
4758.26627,1.84887
4757.23657,1.84854
4756.20686,1.84811
4755.17716,1.84764
4754.14745,1.84715
4753.11775,1.84666
4752.08804,1.84616
4751.05834,1.84564
4750.02863,1.84509
4748.99893,1.84451
4747.96923,1.84395
4746.93952,1.84344
4745.90982,1.84297
4744.88011,1.84254
4743.85041,1.84212
4742.82070,1.84168
4741.79100,1.84121
4740.76129,1.84068
4739.73159,1.84010
4738.70188,1.83953
4737.67218,1.83900
4736.64247,1.83855
4735.61277,1.83819
4734.58306,1.83789
4733.55336,1.83763
4732.52365,1.83745
4731.49395,1.83740
4730.46424,1.83749
4729.43454,1.83768
4728.40483,1.83792
4727.37513,1.83819
4726.34542,1.83847
4725.31572,1.83880
4724.28601,1.83922
4723.25631,1.83972
4722.22660,1.84030
4721.19690,1.84089
4720.16719,1.84145
4719.13749,1.84195
4718.10778,1.84238
4717.07808,1.84270
4716.04837,1.84291
4715.01867,1.84297
4713.98896,1.84292
4712.95926,1.84277
4711.92955,1.84258
4710.89985,1.84235
4709.87014,1.84216
4708.84044,1.84202
4707.81073,1.84195
4706.78103,1.84191
4705.75132,1.84183
4704.72162,1.84167
4703.69191,1.84142
4702.66221,1.84111
4701.63251,1.84079
4700.60280,1.84055
4699.57310,1.84040
4698.54339,1.84038
4697.51369,1.84049
4696.48398,1.84069
4695.45428,1.84092
4694.42457,1.84112
4693.39487,1.84128
4692.36516,1.84142
4691.33546,1.84154
4690.30575,1.84171
4689.27605,1.84200
4688.24634,1.84245
4687.21664,1.84299
4686.18693,1.84360
4685.15723,1.84420
4684.12752,1.84477
4683.09782,1.84530
4682.06811,1.84572
4681.03841,1.84595
4680.00870,1.84598
4678.97900,1.84584
4677.94929,1.84560
4676.91959,1.84532
4675.88988,1.84499
4674.86018,1.84459
4673.83047,1.84413
4672.80077,1.84360
4671.77106,1.84296
4670.74136,1.84215
4669.71165,1.84124
4668.68195,1.84038
4667.65224,1.83965
4666.62254,1.83906
4665.59283,1.83864
4664.56313,1.83841
4663.53342,1.83832
4662.50372,1.83832
4661.47401,1.83837
4660.44431,1.83850
4659.41460,1.83873
4658.38490,1.83902
4657.35520,1.83932
4656.32549,1.83961
4655.29579,1.83993
4654.26608,1.84035
4653.23638,1.84086
4652.20667,1.84144
4651.17697,1.84203
4650.14726,1.84264
4649.11756,1.84328
4648.08785,1.84392
4647.05815,1.84450
4646.02844,1.84501
4644.99874,1.84552
4643.96903,1.84608
4642.93933,1.84661
4641.90962,1.84707
4640.87992,1.84741
4639.85021,1.84759
4638.82051,1.84758
4637.79080,1.84736
4636.76110,1.84692
4635.73139,1.84627
4634.70169,1.84542
4633.67198,1.84437
4632.64228,1.84316
4631.61257,1.84189
4630.58287,1.84067
4629.55316,1.83956
4628.52346,1.83859
4627.49375,1.83778
4626.46405,1.83718
4625.43434,1.83684
4624.40464,1.83674
4623.37493,1.83681
4622.34523,1.83700
4621.31552,1.83732
4620.28582,1.83780
4619.25611,1.83839
4618.22641,1.83903
4617.19670,1.83966
4616.16700,1.84025
4615.13729,1.84075
4614.10759,1.84115
4613.07789,1.84142
4612.04818,1.84155
4611.01848,1.84153
4609.98877,1.84134
4608.95907,1.84101
4607.92936,1.84055
4606.89966,1.84001
4605.86995,1.83942
4604.84025,1.83881
4603.81054,1.83821
4602.78084,1.83768
4601.75113,1.83723
4600.72143,1.83681
4599.69172,1.83637
4598.66202,1.83589
4597.63231,1.83539
4596.60261,1.83487
4595.57290,1.83436
4594.54320,1.83388
4593.51349,1.83347
4592.48379,1.83314
4591.45408,1.83289
4590.42438,1.83271
4589.39467,1.83262
4588.36497,1.83263
4587.33526,1.83272
4586.30556,1.83283
4585.27585,1.83290
4584.24615,1.83291
4583.21644,1.83287
4582.18674,1.83280
4581.15703,1.83275
4580.12733,1.83274
4579.09762,1.83280
4578.06792,1.83292
4577.03821,1.83302
4576.00851,1.83308
4574.97880,1.83310
4573.94910,1.83314
4572.91939,1.83322
4571.88969,1.83333
4570.85998,1.83351
4569.83028,1.83381
4568.80058,1.83425
4567.77087,1.83478
4566.74117,1.83534
4565.71146,1.83591
4564.68176,1.83651
4563.65205,1.83709
4562.62235,1.83756
4561.59264,1.83784
4560.56294,1.83794
4559.53323,1.83788
4558.50353,1.83772
4557.47382,1.83747
4556.44412,1.83716
4555.41441,1.83678
4554.38471,1.83633
4553.35500,1.83580
4552.32530,1.83520
4551.29559,1.83462
4550.26589,1.83412
4549.23618,1.83373
4548.20648,1.83340
4547.17677,1.83314
4546.14707,1.83298
4545.11736,1.83294
4544.08766,1.83298
4543.05795,1.83307
4542.02825,1.83317
4540.99854,1.83331
4539.96884,1.83346
4538.93913,1.83361
4537.90943,1.83370
4536.87972,1.83375
4535.85002,1.83379
4534.82031,1.83384
4533.79061,1.83389
4532.76090,1.83395
4531.73120,1.83400
4530.70149,1.83404
4529.67179,1.83408
4528.64208,1.83414
4527.61238,1.83426
4526.58267,1.83445
4525.55297,1.83468
4524.52326,1.83487
4523.49356,1.83503
4522.46386,1.83518
4521.43415,1.83537
4520.40445,1.83560
4519.37474,1.83585
4518.34504,1.83609
4517.31533,1.83632
4516.28563,1.83656
4515.25592,1.83679
4514.22622,1.83699
4513.19651,1.83717
4512.16681,1.83737
4511.13710,1.83759
4510.10740,1.83784
4509.07769,1.83814
4508.04799,1.83844
4507.01828,1.83870
4505.98858,1.83893
4504.95887,1.83914
4503.92917,1.83936
4502.89946,1.83959
4501.86976,1.83974
4500.84005,1.83974
4499.81035,1.83961
4498.78064,1.83940
4497.75094,1.83915
4496.72123,1.83888
4495.69153,1.83858
4494.66182,1.83823
4493.63212,1.83784
4492.60241,1.83745
4491.57271,1.83708
4490.54300,1.83680
4489.51330,1.83665
4488.48359,1.83669
4487.45389,1.83693
4486.42418,1.83734
4485.39448,1.83793
4484.36477,1.83866
4483.33507,1.83948
4482.30536,1.84036
4481.27566,1.84128
4480.24595,1.84226
4479.21625,1.84328
4478.18655,1.84423
4477.15684,1.84505
4476.12714,1.84573
4475.09743,1.84635
4474.06773,1.84694
4473.03802,1.84744
4472.00832,1.84784
4470.97861,1.84814
4469.94891,1.84836
4468.91920,1.84854
4467.88950,1.84873
4466.85979,1.84896
4465.83009,1.84929
4464.80038,1.84974
4463.77068,1.85026
4462.74097,1.85084
4461.71127,1.85147
4460.68156,1.85215
4459.65186,1.85284
4458.62215,1.85350
4457.59245,1.85411
4456.56274,1.85473
4455.53304,1.85536
4454.50333,1.85598
4453.47363,1.85657
4452.44392,1.85716
4451.41422,1.85783
4450.38451,1.85860
4449.35481,1.85941
4448.32510,1.86025
4447.29540,1.86116
4446.26569,1.86216
4445.23599,1.86329
4444.20628,1.86452
4443.17658,1.86585
4442.14687,1.86727
4441.11717,1.86877
4440.08746,1.87031
4439.05776,1.87184
4438.02805,1.87335
4436.99835,1.87480
4435.96864,1.87617
4434.93894,1.87743
4433.90924,1.87860
4432.87953,1.87971
4431.84983,1.88076
4430.82012,1.88174
4429.79042,1.88265
4428.76071,1.88351
4427.73101,1.88437
4426.70130,1.88530
4425.67160,1.88630
4424.64189,1.88736
4423.61219,1.88851
4422.58248,1.88978
4421.55278,1.89118
4420.52307,1.89268
4419.49337,1.89426
4418.46366,1.89591
4417.43396,1.89763
4416.40425,1.89938
4415.37455,1.90113
4414.34484,1.90284
4413.31514,1.90452
4412.28543,1.90614
4411.25573,1.90770
4410.22602,1.90922
4409.19632,1.91071
4408.16661,1.91219
4407.13691,1.91364
4406.10720,1.91509
4405.07750,1.91652
4404.04779,1.91792
4403.01809,1.91931
4401.98838,1.92072
4400.95868,1.92211
4399.92897,1.92349
4398.89927,1.92484
4397.86956,1.92621
4396.83986,1.92759
4395.81015,1.92893
4394.78045,1.93022
4393.75074,1.93142
4392.72104,1.93254
4391.69133,1.93360
4390.66163,1.93459
4389.63193,1.93547
4388.60222,1.93624
4387.57252,1.93693
4386.54281,1.93757
4385.51311,1.93823
4384.48340,1.93896
4383.45370,1.93978
4382.42399,1.94064
4381.39429,1.94153
4380.36458,1.94239
4379.33488,1.94323
4378.30517,1.94407
4377.27547,1.94494
4376.24576,1.94583
4375.21606,1.94671
4374.18635,1.94763
4373.15665,1.94861
4372.12694,1.94960
4371.09724,1.95059
4370.06753,1.95162
4369.03783,1.95276
4368.00812,1.95402
4366.97842,1.95539
4365.94871,1.95682
4364.91901,1.95829
4363.88930,1.95983
4362.85960,1.96155
4361.82989,1.96349
4360.80019,1.96565
4359.77048,1.96795
4358.74078,1.97034
4357.71107,1.97281
4356.68137,1.97534
4355.65166,1.97786
4354.62196,1.98032
4353.59225,1.98267
4352.56255,1.98489
4351.53284,1.98693
4350.50314,1.98879
4349.47343,1.99050
4348.44373,1.99201
4347.41402,1.99330
4346.38432,1.99440
4345.35461,1.99533
4344.32491,1.99606
4343.29521,1.99656
4342.26550,1.99686
4341.23580,1.99700
4340.20609,1.99705
4339.17639,1.99709
4338.14668,1.99717
4337.11698,1.99732
4336.08727,1.99753
4335.05757,1.99785
4334.02786,1.99832
4332.99816,1.99891
4331.96845,1.99958
4330.93875,2.00023
4329.90904,2.00079
4328.87934,2.00125
4327.84963,2.00163
4326.81993,2.00191
4325.79022,2.00202
4324.76052,2.00187
4323.73081,2.00139
4322.70111,2.00052
4321.67140,1.99922
4320.64170,1.99745
4319.61199,1.99526
4318.58229,1.99271
4317.55258,1.98989
4316.52288,1.98687
4315.49317,1.98372
4314.46347,1.98052
4313.43376,1.97737
4312.40406,1.97437
4311.37435,1.97161
4310.34465,1.96911
4309.31494,1.96687
4308.28524,1.96488
4307.25553,1.96315
4306.22583,1.96169
4305.19612,1.96051
4304.16642,1.95967
4303.13671,1.95921
4302.10701,1.95906
4301.07730,1.95913
4300.04760,1.95937
4299.01790,1.95971
4297.98819,1.96008
4296.95849,1.96046
4295.92878,1.96090
4294.89908,1.96142
4293.86937,1.96203
4292.83967,1.96269
4291.80996,1.96336
4290.78026,1.96402
4289.75055,1.96462
4288.72085,1.96520
4287.69114,1.96574
4286.66144,1.96619
4285.63173,1.96655
4284.60203,1.96684
4283.57232,1.96707
4282.54262,1.96730
4281.51291,1.96757
4280.48321,1.96792
4279.45350,1.96838
4278.42380,1.96897
4277.39409,1.96965
4276.36439,1.97045
4275.33468,1.97138
4274.30498,1.97241
4273.27527,1.97356
4272.24557,1.97489
4271.21586,1.97644
4270.18616,1.97820
4269.15645,1.98007
4268.12675,1.98201
4267.09704,1.98397
4266.06734,1.98593
4265.03763,1.98781
4264.00793,1.98956
4262.97822,1.99113
4261.94852,1.99249
4260.91881,1.99363
4259.88911,1.99456
4258.85940,1.99524
4257.82970,1.99562
4256.79999,1.99568
4255.77029,1.99541
4254.74059,1.99482
4253.71088,1.99392
4252.68118,1.99274
4251.65147,1.99135
4250.62177,1.98979
4249.59206,1.98806
4248.56236,1.98625
4247.53265,1.98443
4246.50295,1.98262
4245.47324,1.98083
4244.44354,1.97909
4243.41383,1.97746
4242.38413,1.97597
4241.35442,1.97458
4240.32472,1.97327
4239.29501,1.97205
4238.26531,1.97098
4237.23560,1.97010
4236.20590,1.96946
4235.17619,1.96901
4234.14649,1.96866
4233.11678,1.96838
4232.08708,1.96818
4231.05737,1.96806
4230.02767,1.96803
4228.99796,1.96810
4227.96826,1.96827
4226.93855,1.96852
4225.90885,1.96882
4224.87914,1.96913
4223.84944,1.96941
4222.81973,1.96963
4221.79003,1.96975
4220.76032,1.96980
4219.73062,1.96978
4218.70091,1.96972
4217.67121,1.96962
4216.64150,1.96948
4215.61180,1.96933
4214.58209,1.96925
4213.55239,1.96926
4212.52268,1.96938
4211.49298,1.96956
4210.46328,1.96973
4209.43357,1.96988
4208.40387,1.97004
4207.37416,1.97024
4206.34446,1.97049
4205.31475,1.97081
4204.28505,1.97118
4203.25534,1.97154
4202.22564,1.97185
4201.19593,1.97210
4200.16623,1.97224
4199.13652,1.97225
4198.10682,1.97216
4197.07711,1.97203
4196.04741,1.97189
4195.01770,1.97175
4193.98800,1.97165
4192.95829,1.97163
4191.92859,1.97166
4190.89888,1.97175
4189.86918,1.97189
4188.83947,1.97208
4187.80977,1.97228
4186.78006,1.97245
4185.75036,1.97258
4184.72065,1.97265
4183.69095,1.97264
4182.66124,1.97255
4181.63154,1.97238
4180.60183,1.97215
4179.57213,1.97182
4178.54242,1.97139
4177.51272,1.97090
4176.48301,1.97041
4175.45331,1.96995
4174.42360,1.96954
4173.39390,1.96922
4172.36419,1.96900
4171.33449,1.96887
4170.30478,1.96886
4169.27508,1.96898
4168.24537,1.96923
4167.21567,1.96958
4166.18596,1.97000
4165.15626,1.97046
4164.12656,1.97094
4163.09685,1.97138
4162.06715,1.97172
4161.03744,1.97190
4160.00774,1.97191
4158.97803,1.97176
4157.94833,1.97150
4156.91862,1.97119
4155.88892,1.97084
4154.85921,1.97044
4153.82951,1.97001
4152.79980,1.96957
4151.77010,1.96917
4150.74039,1.96879
4149.71069,1.96840
4148.68098,1.96801
4147.65128,1.96767
4146.62157,1.96741
4145.59187,1.96723
4144.56216,1.96712
4143.53246,1.96705
4142.50275,1.96704
4141.47305,1.96709
4140.44334,1.96718
4139.41364,1.96729
4138.38393,1.96740
4137.35423,1.96750
4136.32452,1.96764
4135.29482,1.96785
4134.26511,1.96815
4133.23541,1.96852
4132.20570,1.96892
4131.17600,1.96930
4130.14629,1.96961
4129.11659,1.96985
4128.08688,1.97001
4127.05718,1.97008
4126.02747,1.97002
4124.99777,1.96984
4123.96806,1.96959
4122.93836,1.96929
4121.90865,1.96892
4120.87895,1.96847
4119.84925,1.96796
4118.81954,1.96743
4117.78984,1.96695
4116.76013,1.96651
4115.73043,1.96613
4114.70072,1.96587
4113.67102,1.96574
4112.64131,1.96574
4111.61161,1.96587
4110.58190,1.96612
4109.55220,1.96644
4108.52249,1.96680
4107.49279,1.96722
4106.46308,1.96769
4105.43338,1.96817
4104.40367,1.96863
4103.37397,1.96907
4102.34426,1.96946
4101.31456,1.96980
4100.28485,1.97011
4099.25515,1.97040
4098.22544,1.97063
4097.19574,1.97080
4096.16603,1.97093
4095.13633,1.97103
4094.10662,1.97107
4093.07692,1.97102
4092.04721,1.97091
4091.01751,1.97075
4089.98780,1.97055
4088.95810,1.97029
4087.92839,1.96996
4086.89869,1.96958
4085.86898,1.96918
4084.83928,1.96881
4083.80957,1.96851
4082.77987,1.96826
4081.75016,1.96804
4080.72046,1.96784
4079.69075,1.96770
4078.66105,1.96764
4077.63134,1.96769
4076.60164,1.96787
4075.57194,1.96822
4074.54223,1.96875
4073.51253,1.96945
4072.48282,1.97030
4071.45312,1.97124
4070.42341,1.97216
4069.39371,1.97301
4068.36400,1.97378
4067.33430,1.97449
4066.30459,1.97513
4065.27489,1.97571
4064.24518,1.97623
4063.21548,1.97671
4062.18577,1.97717
4061.15607,1.97767
4060.12636,1.97820
4059.09666,1.97870
4058.06695,1.97912
4057.03725,1.97948
4056.00754,1.97981
4054.97784,1.98015
4053.94813,1.98052
4052.91843,1.98094
4051.88872,1.98138
4050.85902,1.98183
4049.82931,1.98225
4048.79961,1.98260
4047.76990,1.98280
4046.74020,1.98280
4045.71049,1.98259
4044.68079,1.98223
4043.65108,1.98173
4042.62138,1.98110
4041.59167,1.98038
4040.56197,1.97962
4039.53226,1.97886
4038.50256,1.97813
4037.47285,1.97748
4036.44315,1.97693
4035.41344,1.97645
4034.38374,1.97603
4033.35403,1.97569
4032.32433,1.97549
4031.29463,1.97545
4030.26492,1.97557
4029.23522,1.97579
4028.20551,1.97602
4027.17581,1.97625
4026.14610,1.97648
4025.11640,1.97668
4024.08669,1.97684
4023.05699,1.97694
4022.02728,1.97700
4020.99758,1.97702
4019.96787,1.97697
4018.93817,1.97681
4017.90846,1.97654
4016.87876,1.97624
4015.84905,1.97595
4014.81935,1.97569
4013.78964,1.97546
4012.75994,1.97529
4011.73023,1.97519
4010.70053,1.97514
4009.67082,1.97514
4008.64112,1.97518
4007.61141,1.97527
4006.58171,1.97540
4005.55200,1.97550
4004.52230,1.97554
4003.49259,1.97556
4002.46289,1.97558
4001.43318,1.97561
4000.40348,1.97561
3999.37377,1.97556
3998.34407,1.97547
3997.31436,1.97532
3996.28466,1.97505
3995.25495,1.97469
3994.22525,1.97428
3993.19554,1.97394
3992.16584,1.97372
3991.13613,1.97360
3990.10643,1.97355
3989.07672,1.97355
3988.04702,1.97360
3987.01731,1.97368
3985.98761,1.97378
3984.95791,1.97388
3983.92820,1.97395
3982.89850,1.97404
3981.86879,1.97418
3980.83909,1.97436
3979.80938,1.97458
3978.77968,1.97485
3977.74997,1.97513
3976.72027,1.97536
3975.69056,1.97553
3974.66086,1.97561
3973.63115,1.97561
3972.60145,1.97549
3971.57174,1.97529
3970.54204,1.97509
3969.51233,1.97497
3968.48263,1.97496
3967.45292,1.97499
3966.42322,1.97500
3965.39351,1.97497
3964.36381,1.97496
3963.33410,1.97498
3962.30440,1.97503
3961.27469,1.97510
3960.24499,1.97521
3959.21528,1.97541
3958.18558,1.97574
3957.15587,1.97620
3956.12617,1.97673
3955.09646,1.97729
3954.06676,1.97783
3953.03705,1.97832
3952.00735,1.97872
3950.97764,1.97900
3949.94794,1.97911
3948.91823,1.97901
3947.88853,1.97867
3946.85882,1.97817
3945.82912,1.97760
3944.79941,1.97698
3943.76971,1.97630
3942.74000,1.97556
3941.71030,1.97480
3940.68060,1.97410
3939.65089,1.97348
3938.62119,1.97294
3937.59148,1.97246
3936.56178,1.97211
3935.53207,1.97191
3934.50237,1.97188
3933.47266,1.97198
3932.44296,1.97217
3931.41325,1.97243
3930.38355,1.97272
3929.35384,1.97299
3928.32414,1.97317
3927.29443,1.97322
3926.26473,1.97311
3925.23502,1.97278
3924.20532,1.97223
3923.17561,1.97153
3922.14591,1.97079
3921.11620,1.97007
3920.08650,1.96938
3919.05679,1.96869
3918.02709,1.96803
3916.99738,1.96742
3915.96768,1.96685
3914.93797,1.96628
3913.90827,1.96575
3912.87856,1.96533
3911.84886,1.96506
3910.81915,1.96494
3909.78945,1.96493
3908.75974,1.96502
3907.73004,1.96517
3906.70033,1.96536
3905.67063,1.96554
3904.64092,1.96563
3903.61122,1.96562
3902.58151,1.96558
3901.55181,1.96555
3900.52210,1.96551
3899.49240,1.96550
3898.46269,1.96556
3897.43299,1.96568
3896.40329,1.96586
3895.37358,1.96607
3894.34388,1.96625
3893.31417,1.96635
3892.28447,1.96637
3891.25476,1.96631
3890.22506,1.96621
3889.19535,1.96613
3888.16565,1.96605
3887.13594,1.96594
3886.10624,1.96574
3885.07653,1.96546
3884.04683,1.96513
3883.01712,1.96479
3881.98742,1.96447
3880.95771,1.96418
3879.92801,1.96391
3878.89830,1.96374
3877.86860,1.96366
3876.83889,1.96367
3875.80919,1.96376
3874.77948,1.96396
3873.74978,1.96424
3872.72007,1.96462
3871.69037,1.96511
3870.66066,1.96568
3869.63096,1.96624
3868.60125,1.96676
3867.57155,1.96724
3866.54184,1.96769
3865.51214,1.96810
3864.48243,1.96838
3863.45273,1.96848
3862.42302,1.96838
3861.39332,1.96812
3860.36361,1.96778
3859.33391,1.96745
3858.30420,1.96717
3857.27450,1.96693
3856.24479,1.96668
3855.21509,1.96636
3854.18538,1.96596
3853.15568,1.96550
3852.12598,1.96510
3851.09627,1.96481
3850.06657,1.96464
3849.03686,1.96458
3848.00716,1.96468
3846.97745,1.96492
3845.94775,1.96526
3844.91804,1.96561
3843.88834,1.96593
3842.85863,1.96624
3841.82893,1.96656
3840.79922,1.96686
3839.76952,1.96702
3838.73981,1.96701
3837.71011,1.96686
3836.68040,1.96665
3835.65070,1.96649
3834.62099,1.96640
3833.59129,1.96633
3832.56158,1.96625
3831.53188,1.96611
3830.50217,1.96589
3829.47247,1.96566
3828.44276,1.96548
3827.41306,1.96538
3826.38335,1.96530
3825.35365,1.96522
3824.32394,1.96515
3823.29424,1.96512
3822.26453,1.96517
3821.23483,1.96524
3820.20512,1.96529
3819.17542,1.96533
3818.14571,1.96541
3817.11601,1.96553
3816.08630,1.96562
3815.05660,1.96561
3814.02689,1.96556
3812.99719,1.96557
3811.96748,1.96570
3810.93778,1.96598
3809.90807,1.96635
3808.87837,1.96677
3807.84866,1.96719
3806.81896,1.96759
3805.78926,1.96794
3804.75955,1.96827
3803.72985,1.96854
3802.70014,1.96867
3801.67044,1.96864
3800.64073,1.96846
3799.61103,1.96826
3798.58132,1.96810
3797.55162,1.96798
3796.52191,1.96784
3795.49221,1.96766
3794.46250,1.96747
3793.43280,1.96725
3792.40309,1.96700
3791.37339,1.96676
3790.34368,1.96654
3789.31398,1.96640
3788.28427,1.96637
3787.25457,1.96646
3786.22486,1.96672
3785.19516,1.96715
3784.16545,1.96771
3783.13575,1.96831
3782.10604,1.96894
3781.07634,1.96957
3780.04663,1.97015
3779.01693,1.97065
3777.98722,1.97111
3776.95752,1.97164
3775.92781,1.97225
3774.89811,1.97294
3773.86840,1.97359
3772.83870,1.97414
3771.80899,1.97458
3770.77929,1.97498
3769.74958,1.97535
3768.71988,1.97564
3767.69017,1.97591
3766.66047,1.97623
3765.63076,1.97668
3764.60106,1.97728
3763.57135,1.97810
3762.54165,1.97922
3761.51195,1.98063
3760.48224,1.98218
3759.45254,1.98370
3758.42283,1.98516
3757.39313,1.98662
3756.36342,1.98807
3755.33372,1.98951
3754.30401,1.99097
3753.27431,1.99247
3752.24460,1.99392
3751.21490,1.99513
3750.18519,1.99604
3749.15549,1.99662
3748.12578,1.99698
3747.09608,1.99724
3746.06637,1.99739
3745.03667,1.99737
3744.00696,1.99714
3742.97726,1.99686
3741.94755,1.99668
3740.91785,1.99667
3739.88814,1.99684
3738.85844,1.99719
3737.82873,1.99765
3736.79903,1.99805
3735.76932,1.99828
3734.73962,1.99841
3733.70991,1.99857
3732.68021,1.99883
3731.65050,1.99919
3730.62080,1.99967
3729.59109,2.00027
3728.56139,2.00098
3727.53168,2.00173
3726.50198,2.00252
3725.47227,2.00334
3724.44257,2.00424
3723.41286,2.00524
3722.38316,2.00635
3721.35345,2.00750
3720.32375,2.00872
3719.29404,2.01008
3718.26434,2.01166
3717.23464,2.01345
3716.20493,2.01535
3715.17523,2.01725
3714.14552,2.01907
3713.11582,2.02074
3712.08611,2.02222
3711.05641,2.02354
3710.02670,2.02483
3708.99700,2.02614
3707.96729,2.02755
3706.93759,2.02909
3705.90788,2.03080
3704.87818,2.03266
3703.84847,2.03467
3702.81877,2.03682
3701.78906,2.03907
3700.75936,2.04141
3699.72965,2.04380
3698.69995,2.04626
3697.67024,2.04887
3696.64054,2.05170
3695.61083,2.05476
3694.58113,2.05798
3693.55142,2.06128
3692.52172,2.06459
3691.49201,2.06788
3690.46231,2.07115
3689.43260,2.07444
3688.40290,2.07775
3687.37319,2.08105
3686.34349,2.08440
3685.31378,2.08787
3684.28408,2.09148
3683.25437,2.09522
3682.22467,2.09909
3681.19496,2.10305
3680.16526,2.10703
3679.13555,2.11094
3678.10585,2.11471
3677.07614,2.11831
3676.04644,2.12167
3675.01673,2.12479
3673.98703,2.12781
3672.95733,2.13078
3671.92762,2.13365
3670.89792,2.13637
3669.86821,2.13892
3668.83851,2.14137
3667.80880,2.14384
3666.77910,2.14640
3665.74939,2.14908
3664.71969,2.15187
3663.68998,2.15474
3662.66028,2.15772
3661.63057,2.16087
3660.60087,2.16422
3659.57116,2.16772
3658.54146,2.17138
3657.51175,2.17518
3656.48205,2.17903
3655.45234,2.18280
3654.42264,2.18641
3653.39293,2.18983
3652.36323,2.19299
3651.33352,2.19586
3650.30382,2.19849
3649.27411,2.20097
3648.24441,2.20326
3647.21470,2.20539
3646.18500,2.20747
3645.15529,2.20957
3644.12559,2.21171
3643.09588,2.21388
3642.06618,2.21599
3641.03647,2.21796
3640.00677,2.21979
3638.97706,2.22150
3637.94736,2.22311
3636.91765,2.22465
3635.88795,2.22616
3634.85824,2.22767
3633.82854,2.22914
3632.79883,2.23056
3631.76913,2.23188
3630.73942,2.23306
3629.70972,2.23413
3628.68001,2.23503
3627.65031,2.23575
3626.62061,2.23641
3625.59090,2.23715
3624.56120,2.23803
3623.53149,2.23906
3622.50179,2.24022
3621.47208,2.24150
3620.44238,2.24276
3619.41267,2.24394
3618.38297,2.24499
3617.35326,2.24586
3616.32356,2.24653
3615.29385,2.24707
3614.26415,2.24750
3613.23444,2.24786
3612.20474,2.24815
3611.17503,2.24840
3610.14533,2.24856
3609.11562,2.24860
3608.08592,2.24858
3607.05621,2.24853
3606.02651,2.24849
3604.99680,2.24847
3603.96710,2.24847
3602.93739,2.24851
3601.90769,2.24867
3600.87798,2.24895
3599.84828,2.24933
3598.81857,2.24971
3597.78887,2.25001
3596.75916,2.25018
3595.72946,2.25026
3594.69975,2.25033
3593.67005,2.25042
3592.64034,2.25054
3591.61064,2.25072
3590.58093,2.25098
3589.55123,2.25129
3588.52152,2.25161
3587.49182,2.25191
3586.46211,2.25217
3585.43241,2.25239
3584.40270,2.25264
3583.37300,2.25297
3582.34330,2.25339
3581.31359,2.25384
3580.28389,2.25429
3579.25418,2.25472
3578.22448,2.25513
3577.19477,2.25552
3576.16507,2.25586
3575.13536,2.25615
3574.10566,2.25632
3573.07595,2.25632
3572.04625,2.25621
3571.01654,2.25609
3569.98684,2.25599
3568.95713,2.25586
3567.92743,2.25565
3566.89772,2.25536
3565.86802,2.25503
3564.83831,2.25464
3563.80861,2.25418
3562.77890,2.25366
3561.74920,2.25310
3560.71949,2.25258
3559.68979,2.25215
3558.66008,2.25185
3557.63038,2.25163
3556.60067,2.25147
3555.57097,2.25145
3554.54126,2.25159
3553.51156,2.25191
3552.48185,2.25234
3551.45215,2.25278
3550.42244,2.25315
3549.39274,2.25340
3548.36303,2.25355
3547.33333,2.25366
3546.30362,2.25374
3545.27392,2.25376
3544.24421,2.25369
3543.21451,2.25355
3542.18480,2.25340
3541.15510,2.25325
3540.12539,2.25306
3539.09569,2.25281
3538.06599,2.25255
3537.03628,2.25234
3536.00658,2.25221
3534.97687,2.25216
3533.94717,2.25217
3532.91746,2.25227
3531.88776,2.25248
3530.85805,2.25284
3529.82835,2.25328
3528.79864,2.25368
3527.76894,2.25388
3526.73923,2.25383
3525.70953,2.25360
3524.67982,2.25329
3523.65012,2.25296
3522.62041,2.25262
3521.59071,2.25226
3520.56100,2.25192
3519.53130,2.25162
3518.50159,2.25134
3517.47189,2.25108
3516.44218,2.25089
3515.41248,2.25082
3514.38277,2.25090
3513.35307,2.25111
3512.32336,2.25141
3511.29366,2.25172
3510.26395,2.25206
3509.23425,2.25248
3508.20454,2.25296
3507.17484,2.25345
3506.14513,2.25384
3505.11543,2.25402
3504.08572,2.25390
3503.05602,2.25354
3502.02631,2.25310
3500.99661,2.25268
3499.96690,2.25230
3498.93720,2.25192
3497.90749,2.25152
3496.87779,2.25108
3495.84808,2.25060
3494.81838,2.25007
3493.78868,2.24952
3492.75897,2.24900
3491.72927,2.24859
3490.69956,2.24830
3489.66986,2.24807
3488.64015,2.24785
3487.61045,2.24762
3486.58074,2.24741
3485.55104,2.24728
3484.52133,2.24722
3483.49163,2.24716
3482.46192,2.24704
3481.43222,2.24686
3480.40251,2.24667
3479.37281,2.24654
3478.34310,2.24655
3477.31340,2.24670
3476.28369,2.24694
3475.25399,2.24723
3474.22428,2.24753
3473.19458,2.24785
3472.16487,2.24815
3471.13517,2.24846
3470.10546,2.24877
3469.07576,2.24908
3468.04605,2.24938
3467.01635,2.24968
3465.98664,2.24995
3464.95694,2.25017
3463.92723,2.25031
3462.89753,2.25037
3461.86782,2.25034
3460.83812,2.25021
3459.80841,2.24992
3458.77871,2.24946
3457.74900,2.24889
3456.71930,2.24825
3455.68959,2.24753
3454.65989,2.24669
3453.63018,2.24573
3452.60048,2.24468
3451.57077,2.24363
3450.54107,2.24266
3449.51136,2.24178
3448.48166,2.24097
3447.45196,2.24021
3446.42225,2.23950
3445.39255,2.23885
3444.36284,2.23830
3443.33314,2.23787
3442.30343,2.23755
3441.27373,2.23731
3440.24402,2.23712
3439.21432,2.23700
3438.18461,2.23694
3437.15491,2.23693
3436.12520,2.23694
3435.09550,2.23695
3434.06579,2.23697
3433.03609,2.23703
3432.00638,2.23709
3430.97668,2.23709
3429.94697,2.23706
3428.91727,2.23708
3427.88756,2.23720
3426.85786,2.23740
3425.82815,2.23761
3424.79845,2.23771
3423.76874,2.23766
3422.73904,2.23748
3421.70933,2.23724
3420.67963,2.23694
3419.64992,2.23658
3418.62022,2.23609
3417.59051,2.23544
3416.56081,2.23467
3415.53110,2.23385
3414.50140,2.23303
3413.47169,2.23220
3412.44199,2.23138
3411.41228,2.23063
3410.38258,2.22996
3409.35287,2.22942
3408.32317,2.22902
3407.29346,2.22876
3406.26376,2.22869
3405.23405,2.22885
3404.20435,2.22919
3403.17465,2.22963
3402.14494,2.23010
3401.11524,2.23054
3400.08553,2.23092
3399.05583,2.23123
3398.02612,2.23151
3396.99642,2.23172
3395.96671,2.23181
3394.93701,2.23171
3393.90730,2.23141
3392.87760,2.23094
3391.84789,2.23034
3390.81819,2.22961
3389.78848,2.22878
3388.75878,2.22790
3387.72907,2.22703
3386.69937,2.22620
3385.66966,2.22544
3384.63996,2.22482
3383.61025,2.22438
3382.58055,2.22414
3381.55084,2.22412
3380.52114,2.22430
3379.49143,2.22463
3378.46173,2.22506
3377.43202,2.22557
3376.40232,2.22613
3375.37261,2.22673
3374.34291,2.22733
3373.31320,2.22790
3372.28350,2.22841
3371.25379,2.22882
3370.22409,2.22907
3369.19438,2.22915
3368.16468,2.22903
3367.13497,2.22870
3366.10527,2.22817
3365.07556,2.22751
3364.04586,2.22678
3363.01615,2.22602
3361.98645,2.22529
3360.95674,2.22462
3359.92704,2.22405
3358.89734,2.22354
3357.86763,2.22310
3356.83793,2.22273
3355.80822,2.22249
3354.77852,2.22237
3353.74881,2.22236
3352.71911,2.22244
3351.68940,2.22261
3350.65970,2.22285
3349.62999,2.22315
3348.60029,2.22350
3347.57058,2.22386
3346.54088,2.22416
3345.51117,2.22437
3344.48147,2.22448
3343.45176,2.22447
3342.42206,2.22435
3341.39235,2.22417
3340.36265,2.22398
3339.33294,2.22379
3338.30324,2.22357
3337.27353,2.22327
3336.24383,2.22284
3335.21412,2.22229
3334.18442,2.22164
3333.15471,2.22099
3332.12501,2.22041
3331.09530,2.21995
3330.06560,2.21961
3329.03589,2.21939
3328.00619,2.21929
3326.97648,2.21926
3325.94678,2.21931
3324.91707,2.21942
3323.88737,2.21961
3322.85766,2.21983
3321.82796,2.22008
3320.79825,2.22037
3319.76855,2.22070
3318.73884,2.22105
3317.70914,2.22142
3316.67943,2.22179
3315.64973,2.22212
3314.62003,2.22234
3313.59032,2.22239
3312.56062,2.22227
3311.53091,2.22204
3310.50121,2.22179
3309.47150,2.22153
3308.44180,2.22128
3307.41209,2.22105
3306.38239,2.22085
3305.35268,2.22066
3304.32298,2.22045
3303.29327,2.22018
3302.26357,2.21986
3301.23386,2.21954
3300.20416,2.21922
3299.17445,2.21893
3298.14475,2.21867
3297.11504,2.21845
3296.08534,2.21826
3295.05563,2.21809
3294.02593,2.21794
3292.99622,2.21778
3291.96652,2.21757
3290.93681,2.21733
3289.90711,2.21707
3288.87740,2.21681
3287.84770,2.21659
3286.81799,2.21644
3285.78829,2.21633
3284.75858,2.21623
3283.72888,2.21619
3282.69917,2.21621
3281.66947,2.21629
3280.63976,2.21641
3279.61006,2.21655
3278.58035,2.21670
3277.55065,2.21686
3276.52094,2.21706
3275.49124,2.21726
3274.46153,2.21747
3273.43183,2.21769
3272.40212,2.21789
3271.37242,2.21806
3270.34271,2.21817
3269.31301,2.21818
3268.28331,2.21810
3267.25360,2.21792
3266.22390,2.21767
3265.19419,2.21733
3264.16449,2.21691
3263.13478,2.21642
3262.10508,2.21590
3261.07537,2.21539
3260.04567,2.21492
3259.01596,2.21448
3257.98626,2.21409
3256.95655,2.21372
3255.92685,2.21337
3254.89714,2.21303
3253.86744,2.21270
3252.83773,2.21243
3251.80803,2.21224
3250.77832,2.21215
3249.74862,2.21219
3248.71891,2.21239
3247.68921,2.21271
3246.65950,2.21311
3245.62980,2.21357
3244.60009,2.21408
3243.57039,2.21464
3242.54068,2.21526
3241.51098,2.21592
3240.48127,2.21660
3239.45157,2.21728
3238.42186,2.21790
3237.39216,2.21845
3236.36245,2.21891
3235.33275,2.21920
3234.30304,2.21931
3233.27334,2.21923
3232.24363,2.21897
3231.21393,2.21849
3230.18422,2.21780
3229.15452,2.21698
3228.12481,2.21609
3227.09511,2.21521
3226.06540,2.21437
3225.03570,2.21362
3224.00600,2.21293
3222.97629,2.21227
3221.94659,2.21169
3220.91688,2.21123
3219.88718,2.21093
3218.85747,2.21079
3217.82777,2.21079
3216.79806,2.21086
3215.76836,2.21094
3214.73865,2.21098
3213.70895,2.21096
3212.67924,2.21088
3211.64954,2.21073
3210.61983,2.21051
3209.59013,2.21026
3208.56042,2.20998
3207.53072,2.20966
3206.50101,2.20931
3205.47131,2.20895
3204.44160,2.20866
3203.41190,2.20847
3202.38219,2.20838
3201.35249,2.20837
3200.32278,2.20840
3199.29308,2.20845
3198.26337,2.20856
3197.23367,2.20879
3196.20396,2.20911
3195.17426,2.20948
3194.14455,2.20985
3193.11485,2.21016
3192.08514,2.21041
3191.05544,2.21058
3190.02573,2.21067
3188.99603,2.21070
3187.96632,2.21068
3186.93662,2.21065
3185.90691,2.21060
3184.87721,2.21053
3183.84750,2.21045
3182.81780,2.21034
3181.78809,2.21022
3180.75839,2.21009
3179.72869,2.20998
3178.69898,2.20988
3177.66928,2.20976
3176.63957,2.20963
3175.60987,2.20949
3174.58016,2.20937
3173.55046,2.20932
3172.52075,2.20932
3171.49105,2.20934
3170.46134,2.20937
3169.43164,2.20941
3168.40193,2.20947
3167.37223,2.20955
3166.34252,2.20964
3165.31282,2.20974
3164.28311,2.20985
3163.25341,2.20996
3162.22370,2.21004
3161.19400,2.21010
3160.16429,2.21013
3159.13459,2.21015
3158.10488,2.21016
3157.07518,2.21013
3156.04547,2.21008
3155.01577,2.20998
3153.98606,2.20984
3152.95636,2.20968
3151.92665,2.20951
3150.89695,2.20933
3149.86724,2.20919
3148.83754,2.20908
3147.80783,2.20899
3146.77813,2.20894
3145.74842,2.20893
3144.71872,2.20895
3143.68901,2.20900
3142.65931,2.20907
3141.62960,2.20914
3140.59990,2.20918
3139.57019,2.20920
3138.54049,2.20921
3137.51078,2.20923
3136.48108,2.20927
3135.45138,2.20934
3134.42167,2.20943
3133.39197,2.20952
3132.36226,2.20960
3131.33256,2.20965
3130.30285,2.20968
3129.27315,2.20970
3128.24344,2.20972
3127.21374,2.20974
3126.18403,2.20978
3125.15433,2.20988
3124.12462,2.21002
3123.09492,2.21019
3122.06521,2.21039
3121.03551,2.21060
3120.00580,2.21079
3118.97610,2.21093
3117.94639,2.21102
3116.91669,2.21105
3115.88698,2.21106
3114.85728,2.21106
3113.82757,2.21107
3112.79787,2.21107
3111.76816,2.21102
3110.73846,2.21093
3109.70875,2.21080
3108.67905,2.21063
3107.64934,2.21041
3106.61964,2.21013
3105.58993,2.20981
3104.56023,2.20947
3103.53052,2.20917
3102.50082,2.20893
3101.47111,2.20878
3100.44141,2.20871
3099.41170,2.20872
3098.38200,2.20876
3097.35229,2.20883
3096.32259,2.20889
3095.29288,2.20897
3094.26318,2.20905
3093.23347,2.20915
3092.20377,2.20929
3091.17406,2.20950
3090.14436,2.20979
3089.11466,2.21013
3088.08495,2.21049
3087.05525,2.21082
3086.02554,2.21114
3084.99584,2.21142
3083.96613,2.21170
3082.93643,2.21196
3081.90672,2.21221
3080.87702,2.21244
3079.84731,2.21268
3078.81761,2.21297
3077.78790,2.21330
3076.75820,2.21366
3075.72849,2.21401
3074.69879,2.21432
3073.66908,2.21452
3072.63938,2.21458
3071.60967,2.21453
3070.57997,2.21439
3069.55026,2.21419
3068.52056,2.21395
3067.49085,2.21374
3066.46115,2.21359
3065.43144,2.21349
3064.40174,2.21339
3063.37203,2.21324
3062.34233,2.21304
3061.31262,2.21285
3060.28292,2.21270
3059.25321,2.21261
3058.22351,2.21256
3057.19380,2.21254
3056.16410,2.21259
3055.13439,2.21274
3054.10469,2.21299
3053.07498,2.21332
3052.04528,2.21369
3051.01557,2.21407
3049.98587,2.21441
3048.95616,2.21471
3047.92646,2.21499
3046.89675,2.21529
3045.86705,2.21565
3044.83735,2.21607
3043.80764,2.21659
3042.77794,2.21718
3041.74823,2.21780
3040.71853,2.21839
3039.68882,2.21890
3038.65912,2.21933
3037.62941,2.21973
3036.59971,2.22012
3035.57000,2.22049
3034.54030,2.22083
3033.51059,2.22118
3032.48089,2.22155
3031.45118,2.22196
3030.42148,2.22239
3029.39177,2.22284
3028.36207,2.22332
3027.33236,2.22385
3026.30266,2.22443
3025.27295,2.22507
3024.24325,2.22577
3023.21354,2.22649
3022.18384,2.22724
3021.15413,2.22802
3020.12443,2.22881
3019.09472,2.22957
3018.06502,2.23025
3017.03531,2.23079
3016.00561,2.23117
3014.97590,2.23141
3013.94620,2.23156
3012.91649,2.23166
3011.88679,2.23172
3010.85708,2.23174
3009.82738,2.23177
3008.79767,2.23183
3007.76797,2.23195
3006.73826,2.23214
3005.70856,2.23243
3004.67885,2.23284
3003.64915,2.23342
3002.61944,2.23415
3001.58974,2.23501
3000.56004,2.23598
2999.53033,2.23701
2998.50063,2.23809
2997.47092,2.23926
2996.44122,2.24051
2995.41151,2.24182
2994.38181,2.24312
2993.35210,2.24435
2992.32240,2.24548
2991.29269,2.24658
2990.26299,2.24767
2989.23328,2.24876
2988.20358,2.24985
2987.17387,2.25092
2986.14417,2.25200
2985.11446,2.25310
2984.08476,2.25424
2983.05505,2.25541
2982.02535,2.25662
2980.99564,2.25788
2979.96594,2.25921
2978.93623,2.26059
2977.90653,2.26202
2976.87682,2.26351
2975.84712,2.26506
2974.81741,2.26670
2973.78771,2.26842
2972.75800,2.27019
2971.72830,2.27199
2970.69859,2.27374
2969.66889,2.27538
2968.63918,2.27690
2967.60948,2.27832
2966.57977,2.27964
2965.55007,2.28082
2964.52036,2.28186
2963.49066,2.28277
2962.46095,2.28358
2961.43125,2.28428
2960.40154,2.28488
2959.37184,2.28540
2958.34213,2.28588
2957.31243,2.28637
2956.28273,2.28693
2955.25302,2.28761
2954.22332,2.28846
2953.19361,2.28949
2952.16391,2.29078
2951.13420,2.29236
2950.10450,2.29417
2949.07479,2.29617
2948.04509,2.29832
2947.01538,2.30060
2945.98568,2.30297
2944.95597,2.30537
2943.92627,2.30774
2942.89656,2.31002
2941.86686,2.31214
2940.83715,2.31407
2939.80745,2.31574
2938.77774,2.31706
2937.74804,2.31786
2936.71833,2.31795
2935.68863,2.31715
2934.65892,2.31526
2933.62922,2.31205
2932.59951,2.30729
2931.56981,2.30082
2930.54010,2.29250
2929.51040,2.28223
2928.48069,2.27003
2927.45099,2.25595
2926.42128,2.24010
2925.39158,2.22262
2924.36187,2.20380
2923.33217,2.18402
2922.30246,2.16370
2921.27276,2.14328
2920.24305,2.12324
2919.21335,2.10410
2918.18364,2.08638
2917.15394,2.07059
2916.12423,2.05712
2915.09453,2.04628
2914.06482,2.03819
2913.03512,2.03286
2912.00541,2.03020
2910.97571,2.03001
2909.94601,2.03196
2908.91630,2.03570
2907.88660,2.04087
2906.85689,2.04709
2905.82719,2.05402
2904.79748,2.06130
2903.76778,2.06863
2902.73807,2.07573
2901.70837,2.08235
2900.67866,2.08835
2899.64896,2.09366
2898.61925,2.09824
2897.58955,2.10209
2896.55984,2.10528
2895.53014,2.10792
2894.50043,2.11014
2893.47073,2.11204
2892.44102,2.11375
2891.41132,2.11538
2890.38161,2.11698
2889.35191,2.11858
2888.32220,2.12020
2887.29250,2.12184
2886.26279,2.12348
2885.23309,2.12513
2884.20338,2.12680
2883.17368,2.12850
2882.14397,2.13025
2881.11427,2.13206
2880.08456,2.13395
2879.05486,2.13593
2878.02515,2.13801
2876.99545,2.14021
2875.96574,2.14257
2874.93604,2.14513
2873.90633,2.14794
2872.87663,2.15105
2871.84692,2.15453
2870.81722,2.15839
2869.78751,2.16257
2868.75781,2.16698
2867.72810,2.17146
2866.69840,2.17579
2865.66870,2.17968
2864.63899,2.18288
2863.60929,2.18510
2862.57958,2.18610
2861.54988,2.18567
2860.52017,2.18361
2859.49047,2.17982
2858.46076,2.17426
2857.43106,2.16696
2856.40135,2.15797
2855.37165,2.14746
2854.34194,2.13565
2853.31224,2.12282
2852.28253,2.10938
2851.25283,2.09580
2850.22312,2.08260
2849.19342,2.07033
2848.16371,2.05944
2847.13401,2.05028
2846.10430,2.04311
2845.07460,2.03801
2844.04489,2.03496
2843.01519,2.03381
2841.98548,2.03440
2840.95578,2.03650
2839.92607,2.03985
2838.89637,2.04415
2837.86666,2.04913
2836.83696,2.05451
2835.80725,2.06003
2834.77755,2.06547
2833.74784,2.07064
2832.71814,2.07540
2831.68843,2.07963
2830.65873,2.08326
2829.62902,2.08629
2828.59932,2.08877
2827.56961,2.09079
2826.53991,2.09248
2825.51020,2.09396
2824.48050,2.09531
2823.45079,2.09657
2822.42109,2.09778
2821.39139,2.09894
2820.36168,2.10005
2819.33198,2.10109
2818.30227,2.10206
2817.27257,2.10299
2816.24286,2.10386
2815.21316,2.10466
2814.18345,2.10537
2813.15375,2.10602
2812.12404,2.10664
2811.09434,2.10722
2810.06463,2.10777
2809.03493,2.10833
2808.00522,2.10891
2806.97552,2.10950
2805.94581,2.11010
2804.91611,2.11068
2803.88640,2.11127
2802.85670,2.11185
2801.82699,2.11242
2800.79729,2.11296
2799.76758,2.11344
2798.73788,2.11385
2797.70817,2.11420
2796.67847,2.11449
2795.64876,2.11474
2794.61906,2.11496
2793.58935,2.11516
2792.55965,2.11536
2791.52994,2.11554
2790.50024,2.11569
2789.47053,2.11583
2788.44083,2.11598
2787.41112,2.11612
2786.38142,2.11624
2785.35171,2.11635
2784.32201,2.11645
2783.29230,2.11656
2782.26260,2.11666
2781.23289,2.11675
2780.20319,2.11686
2779.17348,2.11700
2778.14378,2.11715
2777.11408,2.11727
2776.08437,2.11734
2775.05467,2.11736
2774.02496,2.11736
2772.99526,2.11734
2771.96555,2.11732
2770.93585,2.11733
2769.90614,2.11739
2768.87644,2.11750
2767.84673,2.11763
2766.81703,2.11776
2765.78732,2.11788
2764.75762,2.11799
2763.72791,2.11807
2762.69821,2.11813
2761.66850,2.11816
2760.63880,2.11818
2759.60909,2.11819
2758.57939,2.11820
2757.54968,2.11822
2756.51998,2.11825
2755.49027,2.11830
2754.46057,2.11836
2753.43086,2.11841
2752.40116,2.11845
2751.37145,2.11850
2750.34175,2.11858
2749.31204,2.11870
2748.28234,2.11885
2747.25263,2.11905
2746.22293,2.11931
2745.19322,2.11960
2744.16352,2.11986
2743.13381,2.12009
2742.10411,2.12027
2741.07440,2.12040
2740.04470,2.12050
2739.01499,2.12056
2737.98529,2.12060
2736.95558,2.12061
2735.92588,2.12061
2734.89617,2.12060
2733.86647,2.12058
2732.83676,2.12056
2731.80706,2.12054
2730.77736,2.12052
2729.74765,2.12050
2728.71795,2.12049
2727.68824,2.12048
2726.65854,2.12049
2725.62883,2.12050
2724.59913,2.12051
2723.56942,2.12049
2722.53972,2.12047
2721.51001,2.12044
2720.48031,2.12039
2719.45060,2.12033
2718.42090,2.12026
2717.39119,2.12019
2716.36149,2.12013
2715.33178,2.12009
2714.30208,2.12004
2713.27237,2.12000
2712.24267,2.11997
2711.21296,2.11996
2710.18326,2.11995
2709.15355,2.11995
2708.12385,2.11996
2707.09414,2.11998
2706.06444,2.11998
2705.03473,2.11998
2704.00503,2.11997
2702.97532,2.11993
2701.94562,2.11985
2700.91591,2.11971
2699.88621,2.11953
2698.85650,2.11934
2697.82680,2.11917
2696.79709,2.11903
2695.76739,2.11893
2694.73768,2.11885
2693.70798,2.11879
2692.67827,2.11874
2691.64857,2.11868
2690.61886,2.11860
2689.58916,2.11849
2688.55945,2.11838
2687.52975,2.11828
2686.50005,2.11819
2685.47034,2.11811
2684.44064,2.11807
2683.41093,2.11805
2682.38123,2.11803
2681.35152,2.11802
2680.32182,2.11802
2679.29211,2.11802
2678.26241,2.11801
2677.23270,2.11801
2676.20300,2.11803
2675.17329,2.11807
2674.14359,2.11815
2673.11388,2.11825
2672.08418,2.11836
2671.05447,2.11845
2670.02477,2.11850
2668.99506,2.11851
2667.96536,2.11848
2666.93565,2.11839
2665.90595,2.11827
2664.87624,2.11812
2663.84654,2.11795
2662.81683,2.11775
2661.78713,2.11756
2660.75742,2.11739
2659.72772,2.11723
2658.69801,2.11708
2657.66831,2.11694
2656.63860,2.11681
2655.60890,2.11667
2654.57919,2.11653
2653.54949,2.11639
2652.51978,2.11625
2651.49008,2.11611
2650.46037,2.11594
2649.43067,2.11575
2648.40096,2.11551
2647.37126,2.11524
2646.34155,2.11494
2645.31185,2.11465
2644.28214,2.11436
2643.25244,2.11408
2642.22274,2.11380
2641.19303,2.11352
2640.16333,2.11324
2639.13362,2.11299
2638.10392,2.11278
2637.07421,2.11263
2636.04451,2.11251
2635.01480,2.11242
2633.98510,2.11234
2632.95539,2.11227
2631.92569,2.11219
2630.89598,2.11209
2629.86628,2.11199
2628.83657,2.11189
2627.80687,2.11179
2626.77716,2.11169
2625.74746,2.11159
2624.71775,2.11148
2623.68805,2.11138
2622.65834,2.11131
2621.62864,2.11128
2620.59893,2.11130
2619.56923,2.11134
2618.53952,2.11140
2617.50982,2.11144
2616.48011,2.11148
2615.45041,2.11152
2614.42070,2.11160
2613.39100,2.11169
2612.36129,2.11177
2611.33159,2.11182
2610.30188,2.11186
2609.27218,2.11188
2608.24247,2.11188
2607.21277,2.11186
2606.18306,2.11180
2605.15336,2.11172
2604.12365,2.11165
2603.09395,2.11159
2602.06424,2.11155
2601.03454,2.11152
2600.00483,2.11150
2598.97513,2.11148
2597.94543,2.11149
2596.91572,2.11152
2595.88602,2.11155
2594.85631,2.11158
2593.82661,2.11157
2592.79690,2.11153
2591.76720,2.11146
2590.73749,2.11141
2589.70779,2.11135
2588.67808,2.11125
2587.64838,2.11109
2586.61867,2.11089
2585.58897,2.11066
2584.55926,2.11037
2583.52956,2.11003
2582.49985,2.10961
2581.47015,2.10914
2580.44044,2.10863
2579.41074,2.10812
2578.38103,2.10761
2577.35133,2.10714
2576.32162,2.10669
2575.29192,2.10629
2574.26221,2.10595
2573.23251,2.10568
2572.20280,2.10550
2571.17310,2.10539
2570.14339,2.10531
2569.11369,2.10526
2568.08398,2.10525
2567.05428,2.10528
2566.02457,2.10535
2564.99487,2.10540
2563.96516,2.10542
2562.93546,2.10541
2561.90575,2.10538
2560.87605,2.10532
2559.84634,2.10521
2558.81664,2.10506
2557.78693,2.10487
2556.75723,2.10466
2555.72752,2.10445
2554.69782,2.10426
2553.66811,2.10411
2552.63841,2.10402
2551.60871,2.10398
2550.57900,2.10402
2549.54930,2.10412
2548.51959,2.10428
2547.48989,2.10447
2546.46018,2.10466
2545.43048,2.10484
2544.40077,2.10502
2543.37107,2.10521
2542.34136,2.10538
2541.31166,2.10554
2540.28195,2.10567
2539.25225,2.10580
2538.22254,2.10592
2537.19284,2.10602
2536.16313,2.10612
2535.13343,2.10620
2534.10372,2.10629
2533.07402,2.10637
2532.04431,2.10644
2531.01461,2.10650
2529.98490,2.10659
2528.95520,2.10668
2527.92549,2.10678
2526.89579,2.10687
2525.86608,2.10696
2524.83638,2.10702
2523.80667,2.10705
2522.77697,2.10705
2521.74726,2.10702
2520.71756,2.10698
2519.68785,2.10693
2518.65815,2.10689
2517.62844,2.10686
2516.59874,2.10684
2515.56903,2.10683
2514.53933,2.10681
2513.50962,2.10676
2512.47992,2.10671
2511.45021,2.10666
2510.42051,2.10664
2509.39080,2.10663
2508.36110,2.10659
2507.33140,2.10654
2506.30169,2.10644
2505.27199,2.10628
2504.24228,2.10607
2503.21258,2.10581
2502.18287,2.10552
2501.15317,2.10518
2500.12346,2.10479
2499.09376,2.10438
2498.06405,2.10395
2497.03435,2.10353
2496.00464,2.10312
2494.97494,2.10272
2493.94523,2.10231
2492.91553,2.10188
2491.88582,2.10141
2490.85612,2.10091
2489.82641,2.10036
2488.79671,2.09980
2487.76700,2.09925
2486.73730,2.09873
2485.70759,2.09821
2484.67789,2.09766
2483.64818,2.09708
2482.61848,2.09645
2481.58877,2.09579
2480.55907,2.09513
2479.52936,2.09450
2478.49966,2.09392
2477.46995,2.09338
2476.44025,2.09289
2475.41054,2.09246
2474.38084,2.09209
2473.35113,2.09178
2472.32143,2.09153
2471.29172,2.09133
2470.26202,2.09113
2469.23231,2.09094
2468.20261,2.09073
2467.17290,2.09052
2466.14320,2.09029
2465.11349,2.09006
2464.08379,2.08983
2463.05409,2.08959
2462.02438,2.08934
2460.99468,2.08905
2459.96497,2.08872
2458.93527,2.08837
2457.90556,2.08800
2456.87586,2.08763
2455.84615,2.08730
2454.81645,2.08699
2453.78674,2.08671
2452.75704,2.08646
2451.72733,2.08627
2450.69763,2.08611
2449.66792,2.08599
2448.63822,2.08591
2447.60851,2.08585
2446.57881,2.08582
2445.54910,2.08581
2444.51940,2.08582
2443.48969,2.08584
2442.45999,2.08586
2441.43028,2.08588
2440.40058,2.08589
2439.37087,2.08589
2438.34117,2.08587
2437.31146,2.08584
2436.28176,2.08578
2435.25205,2.08570
2434.22235,2.08561
2433.19264,2.08551
2432.16294,2.08542
2431.13323,2.08533
2430.10353,2.08524
2429.07382,2.08514
2428.04412,2.08505
2427.01441,2.08495
2425.98471,2.08484
2424.95500,2.08471
2423.92530,2.08459
2422.89559,2.08446
2421.86589,2.08433
2420.83618,2.08418
2419.80648,2.08399
2418.77678,2.08377
2417.74707,2.08350
2416.71737,2.08319
2415.68766,2.08282
2414.65796,2.08241
2413.62825,2.08196
2412.59855,2.08150
2411.56884,2.08104
2410.53914,2.08061
2409.50943,2.08023
2408.47973,2.07989
2407.45002,2.07958
2406.42032,2.07928
2405.39061,2.07900
2404.36091,2.07872
2403.33120,2.07848
2402.30150,2.07828
2401.27179,2.07812
2400.24209,2.07801
2399.21238,2.07795
2398.18268,2.07789
2397.15297,2.07782
2396.12327,2.07776
2395.09356,2.07772
2394.06386,2.07768
2393.03415,2.07763
2392.00445,2.07759
2390.97474,2.07758
2389.94504,2.07761
2388.91533,2.07770
2387.88563,2.07788
2386.85592,2.07809
2385.82622,2.07832
2384.79651,2.07852
2383.76681,2.07865
2382.73710,2.07867
2381.70740,2.07859
2380.67769,2.07839
2379.64799,2.07806
2378.61828,2.07763
2377.58858,2.07712
2376.55887,2.07653
2375.52917,2.07586
2374.49946,2.07511
2373.46976,2.07431
2372.44006,2.07354
2371.41035,2.07287
2370.38065,2.07233
2369.35094,2.07192
2368.32124,2.07167
2367.29153,2.07165
2366.26183,2.07187
2365.23212,2.07229
2364.20242,2.07287
2363.17271,2.07354
2362.14301,2.07423
2361.11330,2.07489
2360.08360,2.07550
2359.05389,2.07600
2358.02419,2.07635
2356.99448,2.07654
2355.96478,2.07652
2354.93507,2.07629
2353.90537,2.07590
2352.87566,2.07532
2351.84596,2.07455
2350.81625,2.07364
2349.78655,2.07265
2348.75684,2.07166
2347.72714,2.07073
2346.69743,2.06988
2345.66773,2.06913
2344.63802,2.06850
2343.60832,2.06801
2342.57861,2.06771
2341.54891,2.06757
2340.51920,2.06756
2339.48950,2.06764
2338.45979,2.06781
2337.43009,2.06809
2336.40038,2.06848
2335.37068,2.06897
2334.34097,2.06950
2333.31127,2.07003
2332.28156,2.07052
2331.25186,2.07095
2330.22215,2.07129
2329.19245,2.07152
2328.16275,2.07163
2327.13304,2.07163
2326.10334,2.07157
2325.07363,2.07146
2324.04393,2.07128
2323.01422,2.07098
2321.98452,2.07058
2320.95481,2.07011
2319.92511,2.06958
2318.89540,2.06902
2317.86570,2.06845
2316.83599,2.06787
2315.80629,2.06731
2314.77658,2.06679
2313.74688,2.06635
2312.71717,2.06601
2311.68747,2.06574
2310.65776,2.06552
2309.62806,2.06534
2308.59835,2.06520
2307.56865,2.06508
2306.53894,2.06499
2305.50924,2.06490
2304.47953,2.06482
2303.44983,2.06476
2302.42012,2.06471
2301.39042,2.06466
2300.36071,2.06459
2299.33101,2.06445
2298.30130,2.06424
2297.27160,2.06398
2296.24189,2.06369
2295.21219,2.06337
2294.18248,2.06301
2293.15278,2.06261
2292.12307,2.06220
2291.09337,2.06178
2290.06366,2.06135
2289.03396,2.06093
2288.00425,2.06052
2286.97455,2.06014
2285.94484,2.05979
2284.91514,2.05949
2283.88544,2.05926
2282.85573,2.05908
2281.82603,2.05894
2280.79632,2.05884
2279.76662,2.05879
2278.73691,2.05880
2277.70721,2.05885
2276.67750,2.05892
2275.64780,2.05899
2274.61809,2.05906
2273.58839,2.05911
2272.55868,2.05914
2271.52898,2.05915
2270.49927,2.05912
2269.46957,2.05905
2268.43986,2.05896
2267.41016,2.05885
2266.38045,2.05873
2265.35075,2.05859
2264.32104,2.05846
2263.29134,2.05834
2262.26163,2.05823
2261.23193,2.05812
2260.20222,2.05802
2259.17252,2.05793
2258.14281,2.05784
2257.11311,2.05777
2256.08340,2.05772
2255.05370,2.05770
2254.02399,2.05772
2252.99429,2.05775
2251.96458,2.05777
2250.93488,2.05780
2249.90517,2.05782
2248.87547,2.05782
2247.84576,2.05779
2246.81606,2.05772
2245.78635,2.05762
2244.75665,2.05748
2243.72694,2.05734
2242.69724,2.05718
2241.66753,2.05700
2240.63783,2.05683
2239.60813,2.05666
2238.57842,2.05651
2237.54872,2.05637
2236.51901,2.05624
2235.48931,2.05613
2234.45960,2.05603
2233.42990,2.05595
2232.40019,2.05588
2231.37049,2.05585
2230.34078,2.05584
2229.31108,2.05586
2228.28137,2.05591
2227.25167,2.05596
2226.22196,2.05602
2225.19226,2.05607
2224.16255,2.05610
2223.13285,2.05609
2222.10314,2.05607
2221.07344,2.05603
2220.04373,2.05597
2219.01403,2.05594
2217.98432,2.05594
2216.95462,2.05598
2215.92491,2.05607
2214.89521,2.05619
2213.86550,2.05634
2212.83580,2.05651
2211.80609,2.05669
2210.77639,2.05687
2209.74668,2.05703
2208.71698,2.05720
2207.68727,2.05737
2206.65757,2.05755
2205.62786,2.05773
2204.59816,2.05793
2203.56845,2.05811
2202.53875,2.05827
2201.50904,2.05838
2200.47934,2.05845
2199.44963,2.05846
2198.41993,2.05842
2197.39022,2.05834
2196.36052,2.05823
2195.33081,2.05809
2194.30111,2.05795
2193.27141,2.05780
2192.24170,2.05762
2191.21200,2.05742
2190.18229,2.05719
2189.15259,2.05694
2188.12288,2.05669
2187.09318,2.05645
2186.06347,2.05622
2185.03377,2.05602
2184.00406,2.05588
2182.97436,2.05580
2181.94465,2.05577
2180.91495,2.05581
2179.88524,2.05591
2178.85554,2.05604
2177.82583,2.05620
2176.79613,2.05636
2175.76642,2.05654
2174.73672,2.05671
2173.70701,2.05688
2172.67731,2.05704
2171.64760,2.05718
2170.61790,2.05730
2169.58819,2.05740
2168.55849,2.05748
2167.52878,2.05752
2166.49908,2.05751
2165.46937,2.05746
2164.43967,2.05738
2163.40996,2.05728
2162.38026,2.05718
2161.35055,2.05708
2160.32085,2.05699
2159.29114,2.05690
2158.26144,2.05685
2157.23173,2.05683
2156.20203,2.05684
2155.17232,2.05688
2154.14262,2.05692
2153.11291,2.05698
2152.08321,2.05705
2151.05350,2.05715
2150.02380,2.05726
2148.99410,2.05737
2147.96439,2.05748
2146.93469,2.05760
2145.90498,2.05774
2144.87528,2.05786
2143.84557,2.05797
2142.81587,2.05804
2141.78616,2.05807
2140.75646,2.05806
2139.72675,2.05803
2138.69705,2.05796
2137.66734,2.05787
2136.63764,2.05776
2135.60793,2.05765
2134.57823,2.05754
2133.54852,2.05745
2132.51882,2.05737
2131.48911,2.05728
2130.45941,2.05719
2129.42970,2.05710
2128.40000,2.05701
2127.37029,2.05692
2126.34059,2.05682
2125.31088,2.05672
2124.28118,2.05661
2123.25147,2.05651
2122.22177,2.05641
2121.19206,2.05631
2120.16236,2.05619
2119.13265,2.05604
2118.10295,2.05587
2117.07324,2.05568
2116.04354,2.05549
2115.01383,2.05530
2113.98413,2.05511
2112.95442,2.05494
2111.92472,2.05479
2110.89501,2.05466
2109.86531,2.05454
2108.83560,2.05443
2107.80590,2.05433
2106.77619,2.05423
2105.74649,2.05414
2104.71679,2.05406
2103.68708,2.05398
2102.65738,2.05391
2101.62767,2.05385
2100.59797,2.05381
2099.56826,2.05380
2098.53856,2.05381
2097.50885,2.05381
2096.47915,2.05381
2095.44944,2.05379
2094.41974,2.05378
2093.39003,2.05378
2092.36033,2.05380
2091.33062,2.05382
2090.30092,2.05385
2089.27121,2.05387
2088.24151,2.05388
2087.21180,2.05387
2086.18210,2.05386
2085.15239,2.05383
2084.12269,2.05379
2083.09298,2.05373
2082.06328,2.05367
2081.03357,2.05361
2080.00387,2.05355
2078.97416,2.05349
2077.94446,2.05345
2076.91475,2.05341
2075.88505,2.05338
2074.85534,2.05334
2073.82564,2.05329
2072.79593,2.05322
2071.76623,2.05315
2070.73652,2.05308
2069.70682,2.05301
2068.67711,2.05294
2067.64741,2.05284
2066.61770,2.05272
2065.58800,2.05259
2064.55829,2.05246
2063.52859,2.05235
2062.49888,2.05226
2061.46918,2.05219
2060.43948,2.05216
2059.40977,2.05216
2058.38007,2.05221
2057.35036,2.05230
2056.32066,2.05242
2055.29095,2.05257
2054.26125,2.05273
2053.23154,2.05288
2052.20184,2.05301
2051.17213,2.05312
2050.14243,2.05319
2049.11272,2.05320
2048.08302,2.05315
2047.05331,2.05306
2046.02361,2.05290
2044.99390,2.05267
2043.96420,2.05238
2042.93449,2.05202
2041.90479,2.05159
2040.87508,2.05114
2039.84538,2.05067
2038.81567,2.05018
2037.78597,2.04970
2036.75626,2.04924
2035.72656,2.04882
2034.69685,2.04845
2033.66715,2.04811
2032.63744,2.04780
2031.60774,2.04752
2030.57803,2.04728
2029.54833,2.04705
2028.51862,2.04684
2027.48892,2.04664
2026.45921,2.04645
2025.42951,2.04627
2024.39980,2.04610
2023.37010,2.04594
2022.34039,2.04579
2021.31069,2.04565
2020.28098,2.04552
2019.25128,2.04540
2018.22157,2.04526
2017.19187,2.04512
2016.16216,2.04499
2015.13246,2.04484
2014.10276,2.04466
2013.07305,2.04447
2012.04335,2.04428
2011.01364,2.04408
2009.98394,2.04388
2008.95423,2.04368
2007.92453,2.04348
2006.89482,2.04327
2005.86512,2.04307
2004.83541,2.04287
2003.80571,2.04267
2002.77600,2.04250
2001.74630,2.04236
2000.71659,2.04226
1999.68689,2.04219
1998.65718,2.04214
1997.62748,2.04213
1996.59777,2.04218
1995.56807,2.04226
1994.53836,2.04237
1993.50866,2.04250
1992.47895,2.04264
1991.44925,2.04274
1990.41954,2.04280
1989.38984,2.04281
1988.36013,2.04278
1987.33043,2.04271
1986.30072,2.04261
1985.27102,2.04248
1984.24131,2.04232
1983.21161,2.04213
1982.18190,2.04191
1981.15220,2.04169
1980.12249,2.04145
1979.09279,2.04120
1978.06308,2.04095
1977.03338,2.04071
1976.00367,2.04047
1974.97397,2.04025
1973.94426,2.04006
1972.91456,2.03992
1971.88485,2.03983
1970.85515,2.03978
1969.82545,2.03976
1968.79574,2.03976
1967.76604,2.03977
1966.73633,2.03977
1965.70663,2.03975
1964.67692,2.03970
1963.64722,2.03964
1962.61751,2.03957
1961.58781,2.03951
1960.55810,2.03948
1959.52840,2.03946
1958.49869,2.03945
1957.46899,2.03945
1956.43928,2.03943
1955.40958,2.03941
1954.37987,2.03938
1953.35017,2.03935
1952.32046,2.03934
1951.29076,2.03935
1950.26105,2.03939
1949.23135,2.03946
1948.20164,2.03955
1947.17194,2.03966
1946.14223,2.03976
1945.11253,2.03983
1944.08282,2.03987
1943.05312,2.03987
1942.02341,2.03983
1940.99371,2.03974
1939.96400,2.03963
1938.93430,2.03951
1937.90459,2.03940
1936.87489,2.03932
1935.84518,2.03927
1934.81548,2.03924
1933.78577,2.03920
1932.75607,2.03916
1931.72636,2.03913
1930.69666,2.03910
1929.66695,2.03908
1928.63725,2.03906
1927.60754,2.03904
1926.57784,2.03905
1925.54814,2.03906
1924.51843,2.03909
1923.48873,2.03910
1922.45902,2.03906
1921.42932,2.03896
1920.39961,2.03881
1919.36991,2.03862
1918.34020,2.03840
1917.31050,2.03815
1916.28079,2.03787
1915.25109,2.03758
1914.22138,2.03731
1913.19168,2.03707
1912.16197,2.03686
1911.13227,2.03670
1910.10256,2.03656
1909.07286,2.03646
1908.04315,2.03639
1907.01345,2.03637
1905.98374,2.03638
1904.95404,2.03641
1903.92433,2.03649
1902.89463,2.03662
1901.86492,2.03678
1900.83522,2.03697
1899.80551,2.03718
1898.77581,2.03738
1897.74610,2.03755
1896.71640,2.03770
1895.68669,2.03783
1894.65699,2.03794
1893.62728,2.03803
1892.59758,2.03807
1891.56787,2.03808
1890.53817,2.03806
1889.50846,2.03803
1888.47876,2.03798
1887.44905,2.03791
1886.41935,2.03786
1885.38964,2.03784
1884.35994,2.03785
1883.33023,2.03790
1882.30053,2.03798
1881.27083,2.03809
1880.24112,2.03822
1879.21142,2.03838
1878.18171,2.03856
1877.15201,2.03879
1876.12230,2.03904
1875.09260,2.03930
1874.06289,2.03955
1873.03319,2.03980
1872.00348,2.04003
1870.97378,2.04025
1869.94407,2.04045
1868.91437,2.04061
1867.88466,2.04070
1866.85496,2.04070
1865.82525,2.04062
1864.79555,2.04046
1863.76584,2.04027
1862.73614,2.04008
1861.70643,2.03991
1860.67673,2.03975
1859.64702,2.03961
1858.61732,2.03950
1857.58761,2.03942
1856.55791,2.03938
1855.52820,2.03939
1854.49850,2.03950
1853.46879,2.03972
1852.43909,2.04000
1851.40938,2.04034
1850.37968,2.04072
1849.34997,2.04115
1848.32027,2.04163
1847.29056,2.04214
1846.26086,2.04264
1845.23115,2.04312
1844.20145,2.04356
1843.17174,2.04393
1842.14204,2.04423
1841.11233,2.04446
1840.08263,2.04467
1839.05292,2.04488
1838.02322,2.04508
1836.99351,2.04526
1835.96381,2.04542
1834.93411,2.04560
1833.90440,2.04577
1832.87470,2.04595
1831.84499,2.04615
1830.81529,2.04639
1829.78558,2.04668
1828.75588,2.04697
1827.72617,2.04726
1826.69647,2.04757
1825.66676,2.04793
1824.63706,2.04836
1823.60735,2.04881
1822.57765,2.04929
1821.54794,2.04981
1820.51824,2.05038
1819.48853,2.05100
1818.45883,2.05167
1817.42912,2.05240
1816.39942,2.05321
1815.36971,2.05410
1814.34001,2.05504
1813.31030,2.05602
1812.28060,2.05705
1811.25089,2.05814
1810.22119,2.05930
1809.19148,2.06051
1808.16178,2.06178
1807.13207,2.06314
1806.10237,2.06458
1805.07266,2.06609
1804.04296,2.06764
1803.01325,2.06923
1801.98355,2.07088
1800.95384,2.07257
1799.92414,2.07422
1798.89443,2.07581
1797.86473,2.07733
1796.83502,2.07878
1795.80532,2.08014
1794.77561,2.08136
1793.74591,2.08242
1792.71620,2.08329
1791.68650,2.08397
1790.65680,2.08441
1789.62709,2.08463
1788.59739,2.08470
1787.56768,2.08468
1786.53798,2.08464
1785.50827,2.08457
1784.47857,2.08449
1783.44886,2.08444
1782.41916,2.08445
1781.38945,2.08452
1780.35975,2.08466
1779.33004,2.08485
1778.30034,2.08512
1777.27063,2.08546
1776.24093,2.08584
1775.21122,2.08626
1774.18152,2.08670
1773.15181,2.08715
1772.12211,2.08760
1771.09240,2.08799
1770.06270,2.08829
1769.03299,2.08854
1768.00329,2.08874
1766.97358,2.08889
1765.94388,2.08901
1764.91417,2.08919
1763.88447,2.08950
1762.85476,2.08996
1761.82506,2.09051
1760.79535,2.09111
1759.76565,2.09179
1758.73594,2.09258
1757.70624,2.09351
1756.67653,2.09452
1755.64683,2.09558
1754.61712,2.09667
1753.58742,2.09779
1752.55771,2.09890
1751.52801,2.09998
1750.49830,2.10098
1749.46860,2.10184
1748.43889,2.10255
1747.40919,2.10305
1746.37949,2.10334
1745.34978,2.10340
1744.32008,2.10324
1743.29037,2.10283
1742.26067,2.10218
1741.23096,2.10132
1740.20126,2.10026
1739.17155,2.09897
1738.14185,2.09742
1737.11214,2.09564
1736.08244,2.09370
1735.05273,2.09174
1734.02303,2.08984
1732.99332,2.08797
1731.96362,2.08613
1730.93391,2.08440
1729.90421,2.08285
1728.87450,2.08148
1727.84480,2.08031
1726.81509,2.07934
1725.78539,2.07857
1724.75568,2.07800
1723.72598,2.07759
1722.69627,2.07729
1721.66657,2.07705
1720.63686,2.07681
1719.60716,2.07651
1718.57745,2.07611
1717.54775,2.07555
1716.51804,2.07478
1715.48834,2.07378
1714.45863,2.07252
1713.42893,2.07106
1712.39922,2.06944
1711.36952,2.06775
1710.33981,2.06600
1709.31011,2.06420
1708.28040,2.06237
1707.25070,2.06050
1706.22099,2.05862
1705.19129,2.05672
1704.16158,2.05480
1703.13188,2.05290
1702.10218,2.05102
1701.07247,2.04919
1700.04277,2.04741
1699.01306,2.04561
1697.98336,2.04376
1696.95365,2.04186
1695.92395,2.03990
1694.89424,2.03791
1693.86454,2.03591
1692.83483,2.03392
1691.80513,2.03199
1690.77542,2.03015
1689.74572,2.02845
1688.71601,2.02693
1687.68631,2.02562
1686.65660,2.02453
1685.62690,2.02368
1684.59719,2.02304
1683.56749,2.02256
1682.53778,2.02217
1681.50808,2.02186
1680.47837,2.02165
1679.44867,2.02156
1678.41896,2.02159
1677.38926,2.02172
1676.35955,2.02191
1675.32985,2.02207
1674.30014,2.02213
1673.27044,2.02210
1672.24073,2.02200
1671.21103,2.02186
1670.18132,2.02166
1669.15162,2.02139
1668.12191,2.02106
1667.09221,2.02069
1666.06250,2.02032
1665.03280,2.01999
1664.00309,2.01974
1662.97339,2.01958
1661.94368,2.01952
1660.91398,2.01955
1659.88427,2.01964
1658.85457,2.01975
1657.82486,2.01986
1656.79516,2.02001
1655.76546,2.02022
1654.73575,2.02047
1653.70605,2.02073
1652.67634,2.02096
1651.64664,2.02107
1650.61693,2.02105
1649.58723,2.02094
1648.55752,2.02077
1647.52782,2.02056
1646.49811,2.02023
1645.46841,2.01972
1644.43870,2.01907
1643.40900,2.01832
1642.37929,2.01752
1641.34959,2.01673
1640.31988,2.01596
1639.29018,2.01518
1638.26047,2.01439
1637.23077,2.01357
1636.20106,2.01273
1635.17136,2.01184
1634.14165,2.01087
1633.11195,2.00987
1632.08224,2.00889
1631.05254,2.00795
1630.02283,2.00706
1628.99313,2.00624
1627.96342,2.00548
1626.93372,2.00478
1625.90401,2.00421
1624.87431,2.00380
1623.84460,2.00351
1622.81490,2.00328
1621.78519,2.00307
1620.75549,2.00289
1619.72578,2.00279
1618.69608,2.00277
1617.66637,2.00281
1616.63667,2.00287
1615.60696,2.00290
1614.57726,2.00286
1613.54755,2.00276
1612.51785,2.00262
1611.48815,2.00243
1610.45844,2.00219
1609.42874,2.00190
1608.39903,2.00160
1607.36933,2.00131
1606.33962,2.00104
1605.30992,2.00080
1604.28021,2.00059
1603.25051,2.00043
1602.22080,2.00033
1601.19110,2.00029
1600.16139,2.00026
1599.13169,2.00021
1598.10198,2.00012
1597.07228,2.00003
1596.04257,1.99996
1595.01287,1.99991
1593.98316,1.99987
1592.95346,1.99983
1591.92375,1.99977
1590.89405,1.99970
1589.86434,1.99967
1588.83464,1.99968
1587.80493,1.99971
1586.77523,1.99979
1585.74552,1.99991
1584.71582,2.00012
1583.68611,2.00044
1582.65641,2.00078
1581.62670,2.00108
1580.59700,2.00135
1579.56729,2.00160
1578.53759,2.00187
1577.50788,2.00216
1576.47818,2.00247
1575.44847,2.00278
1574.41877,2.00312
1573.38906,2.00352
1572.35936,2.00401
1571.32965,2.00459
1570.29995,2.00526
1569.27024,2.00600
1568.24054,2.00677
1567.21084,2.00755
1566.18113,2.00838
1565.15143,2.00922
1564.12172,2.01001
1563.09202,2.01066
1562.06231,2.01117
1561.03261,2.01151
1560.00290,2.01163
1558.97320,2.01144
1557.94349,2.01080
1556.91379,2.00973
1555.88408,2.00834
1554.85438,2.00671
1553.82467,2.00490
1552.79497,2.00297
1551.76526,2.00096
1550.73556,1.99895
1549.70585,1.99700
1548.67615,1.99516
1547.64644,1.99351
1546.61674,1.99215
1545.58703,1.99112
1544.55733,1.99039
1543.52762,1.98998
1542.49792,1.98996
1541.46821,1.99034
1540.43851,1.99108
1539.40880,1.99210
1538.37910,1.99338
1537.34939,1.99494
1536.31969,1.99682
1535.28998,1.99898
1534.26028,2.00136
1533.23057,2.00388
1532.20087,2.00652
1531.17116,2.00922
1530.14146,2.01191
1529.11175,2.01452
1528.08205,2.01702
1527.05234,2.01937
1526.02264,2.02155
1524.99293,2.02353
1523.96323,2.02532
1522.93353,2.02695
1521.90382,2.02840
1520.87412,2.02960
1519.84441,2.03049
1518.81471,2.03112
1517.78500,2.03156
1516.75530,2.03184
1515.72559,2.03198
1514.69589,2.03205
1513.66618,2.03210
1512.63648,2.03222
1511.60677,2.03243
1510.57707,2.03273
1509.54736,2.03307
1508.51766,2.03340
1507.48795,2.03369
1506.45825,2.03393
1505.42854,2.03409
1504.39884,2.03424
1503.36913,2.03444
1502.33943,2.03474
1501.30972,2.03516
1500.28002,2.03572
1499.25031,2.03638
1498.22061,2.03711
1497.19090,2.03784
1496.16120,2.03854
1495.13149,2.03925
1494.10179,2.04003
1493.07208,2.04097
1492.04238,2.04209
1491.01267,2.04344
1489.98297,2.04499
1488.95326,2.04669
1487.92356,2.04848
1486.89385,2.05033
1485.86415,2.05217
1484.83444,2.05394
1483.80474,2.05557
1482.77503,2.05698
1481.74533,2.05811
1480.71562,2.05886
1479.68592,2.05915
1478.65621,2.05892
1477.62651,2.05811
1476.59681,2.05668
1475.56710,2.05458
1474.53740,2.05178
1473.50769,2.04833
1472.47799,2.04431
1471.44828,2.03989
1470.41858,2.03527
1469.38887,2.03066
1468.35917,2.02624
1467.32946,2.02214
1466.29976,2.01848
1465.27005,2.01533
1464.24035,2.01275
1463.21064,2.01081
1462.18094,2.00954
1461.15123,2.00894
1460.12153,2.00892
1459.09182,2.00937
1458.06212,2.01015
1457.03241,2.01110
1456.00271,2.01205
1454.97300,2.01288
1453.94330,2.01356
1452.91359,2.01404
1451.88389,2.01425
1450.85418,2.01415
1449.82448,2.01373
1448.79477,2.01303
1447.76507,2.01206
1446.73536,2.01089
1445.70566,2.00956
1444.67595,2.00816
1443.64625,2.00674
1442.61654,2.00536
1441.58684,2.00404
1440.55713,2.00281
1439.52743,2.00170
1438.49772,2.00073
1437.46802,1.99988
1436.43831,1.99914
1435.40861,1.99844
1434.37890,1.99779
1433.34920,1.99721
1432.31950,1.99670
1431.28979,1.99629
1430.26009,1.99601
1429.23038,1.99588
1428.20068,1.99587
1427.17097,1.99596
1426.14127,1.99613
1425.11156,1.99638
1424.08186,1.99666
1423.05215,1.99695
1422.02245,1.99721
1420.99274,1.99744
1419.96304,1.99766
1418.93333,1.99782
1417.90363,1.99788
1416.87392,1.99778
1415.84422,1.99756
1414.81451,1.99726
1413.78481,1.99688
1412.75510,1.99646
1411.72540,1.99604
1410.69569,1.99564
1409.66599,1.99533
1408.63628,1.99514
1407.60658,1.99508
1406.57687,1.99519
1405.54717,1.99545
1404.51746,1.99587
1403.48776,1.99642
1402.45805,1.99709
1401.42835,1.99787
1400.39864,1.99874
1399.36894,1.99966
1398.33923,2.00057
1397.30953,2.00140
1396.27982,2.00211
1395.25012,2.00268
1394.22041,2.00303
1393.19071,2.00315
1392.16100,2.00308
1391.13130,2.00285
1390.10159,2.00249
1389.07189,2.00203
1388.04219,2.00147
1387.01248,2.00083
1385.98278,2.00010
1384.95307,1.99930
1383.92337,1.99849
1382.89366,1.99768
1381.86396,1.99689
1380.83425,1.99613
1379.80455,1.99542
1378.77484,1.99475
1377.74514,1.99413
1376.71543,1.99356
1375.68573,1.99304
1374.65602,1.99255
1373.62632,1.99203
1372.59661,1.99147
1371.56691,1.99086
1370.53720,1.99023
1369.50750,1.98958
1368.47779,1.98895
1367.44809,1.98833
1366.41838,1.98773
1365.38868,1.98718
1364.35897,1.98667
1363.32927,1.98617
1362.29956,1.98565
1361.26986,1.98511
1360.24015,1.98461
1359.21045,1.98417
1358.18074,1.98379
1357.15104,1.98349
1356.12133,1.98327
1355.09163,1.98314
1354.06192,1.98309
1353.03222,1.98312
1352.00251,1.98323
1350.97281,1.98340
1349.94310,1.98361
1348.91340,1.98383
1347.88369,1.98407
1346.85399,1.98432
1345.82428,1.98461
1344.79458,1.98493
1343.76488,1.98524
1342.73517,1.98554
1341.70547,1.98581
1340.67576,1.98605
1339.64606,1.98622
1338.61635,1.98628
1337.58665,1.98624
1336.55694,1.98613
1335.52724,1.98597
1334.49753,1.98578
1333.46783,1.98556
1332.43812,1.98532
1331.40842,1.98507
1330.37871,1.98482
1329.34901,1.98455
1328.31930,1.98426
1327.28960,1.98395
1326.25989,1.98364
1325.23019,1.98333
1324.20048,1.98304
1323.17078,1.98277
1322.14107,1.98255
1321.11137,1.98239
1320.08166,1.98227
1319.05196,1.98218
1318.02225,1.98212
1316.99255,1.98209
1315.96284,1.98212
1314.93314,1.98218
1313.90343,1.98229
1312.87373,1.98245
1311.84402,1.98266
1310.81432,1.98290
1309.78461,1.98320
1308.75491,1.98353
1307.72520,1.98387
1306.69550,1.98422
1305.66579,1.98454
1304.63609,1.98485
1303.60638,1.98514
1302.57668,1.98541
1301.54697,1.98568
1300.51727,1.98596
1299.48756,1.98623
1298.45786,1.98650
1297.42816,1.98675
1296.39845,1.98699
1295.36875,1.98720
1294.33904,1.98738
1293.30934,1.98754
1292.27963,1.98770
1291.24993,1.98785
1290.22022,1.98798
1289.19052,1.98808
1288.16081,1.98813
1287.13111,1.98814
1286.10140,1.98810
1285.07170,1.98802
1284.04199,1.98789
1283.01229,1.98770
1281.98258,1.98747
1280.95288,1.98721
1279.92317,1.98693
1278.89347,1.98662
1277.86376,1.98631
1276.83406,1.98599
1275.80435,1.98567
1274.77465,1.98534
1273.74494,1.98500
1272.71524,1.98466
1271.68553,1.98432
1270.65583,1.98398
1269.62612,1.98363
1268.59642,1.98327
1267.56671,1.98290
1266.53701,1.98250
1265.50730,1.98209
1264.47760,1.98166
1263.44789,1.98121
1262.41819,1.98074
1261.38848,1.98025
1260.35878,1.97975
1259.32907,1.97923
1258.29937,1.97869
1257.26966,1.97812
1256.23996,1.97754
1255.21025,1.97694
1254.18055,1.97635
1253.15085,1.97574
1252.12114,1.97514
1251.09144,1.97453
1250.06173,1.97392
1249.03203,1.97331
1248.00232,1.97272
1246.97262,1.97213
1245.94291,1.97156
1244.91321,1.97102
1243.88350,1.97049
1242.85380,1.96998
1241.82409,1.96950
1240.79439,1.96907
1239.76468,1.96867
1238.73498,1.96830
1237.70527,1.96794
1236.67557,1.96758
1235.64586,1.96723
1234.61616,1.96689
1233.58645,1.96655
1232.55675,1.96621
1231.52704,1.96588
1230.49734,1.96557
1229.46763,1.96527
1228.43793,1.96496
1227.40822,1.96463
1226.37852,1.96430
1225.34881,1.96396
1224.31911,1.96362
1223.28940,1.96330
1222.25970,1.96301
1221.22999,1.96274
1220.20029,1.96249
1219.17058,1.96225
1218.14088,1.96204
1217.11117,1.96187
1216.08147,1.96172
1215.05176,1.96158
1214.02206,1.96143
1212.99235,1.96128
1211.96265,1.96115
1210.93294,1.96103
1209.90324,1.96093
1208.87354,1.96086
1207.84383,1.96080
1206.81413,1.96076
1205.78442,1.96071
1204.75472,1.96066
1203.72501,1.96057
1202.69531,1.96045
1201.66560,1.96032
1200.63590,1.96014
1199.60619,1.95994
1198.57649,1.95969
1197.54678,1.95939
1196.51708,1.95904
1195.48737,1.95863
1194.45767,1.95819
1193.42796,1.95770
1192.39826,1.95716
1191.36855,1.95658
1190.33885,1.95595
1189.30914,1.95530
1188.27944,1.95463
1187.24973,1.95397
1186.22003,1.95333
1185.19032,1.95271
1184.16062,1.95210
1183.13091,1.95148
1182.10121,1.95087
1181.07150,1.95026
1180.04180,1.94964
1179.01209,1.94902
1177.98239,1.94839
1176.95268,1.94775
1175.92298,1.94708
1174.89327,1.94638
1173.86357,1.94564
1172.83386,1.94486
1171.80416,1.94407
1170.77445,1.94328
1169.74475,1.94247
1168.71504,1.94164
1167.68534,1.94078
1166.65563,1.93993
1165.62593,1.93907
1164.59623,1.93822
1163.56652,1.93737
1162.53682,1.93657
1161.50711,1.93580
1160.47741,1.93507
1159.44770,1.93438
1158.41800,1.93374
1157.38829,1.93317
1156.35859,1.93269
1155.32888,1.93230
1154.29918,1.93200
1153.26947,1.93179
1152.23977,1.93163
1151.21006,1.93152
1150.18036,1.93144
1149.15065,1.93139
1148.12095,1.93138
1147.09124,1.93140
1146.06154,1.93141
1145.03183,1.93137
1144.00213,1.93124
1142.97242,1.93104
1141.94272,1.93073
1140.91301,1.93033
1139.88331,1.92984
1138.85360,1.92926
1137.82390,1.92862
1136.79419,1.92791
1135.76449,1.92716
1134.73478,1.92637
1133.70508,1.92558
1132.67537,1.92480
1131.64567,1.92406
1130.61596,1.92337
1129.58626,1.92271
1128.55655,1.92206
1127.52685,1.92142
1126.49714,1.92080
1125.46744,1.92021
1124.43773,1.91964
1123.40803,1.91908
1122.37832,1.91851
1121.34862,1.91792
1120.31891,1.91732
1119.28921,1.91670
1118.25951,1.91607
1117.22980,1.91542
1116.20010,1.91477
1115.17039,1.91413
1114.14069,1.91352
1113.11098,1.91292
1112.08128,1.91235
1111.05157,1.91181
1110.02187,1.91130
1108.99216,1.91082
1107.96246,1.91038
1106.93275,1.90997
1105.90305,1.90956
1104.87334,1.90911
1103.84364,1.90863
1102.81393,1.90812
1101.78423,1.90756
1100.75452,1.90695
1099.72482,1.90630
1098.69511,1.90559
1097.66541,1.90485
1096.63570,1.90410
1095.60600,1.90335
1094.57629,1.90260
1093.54659,1.90185
1092.51688,1.90115
1091.48718,1.90052
1090.45747,1.89997
1089.42777,1.89951
1088.39806,1.89915
1087.36836,1.89889
1086.33865,1.89875
1085.30895,1.89872
1084.27924,1.89880
1083.24954,1.89899
1082.21983,1.89925
1081.19013,1.89956
1080.16042,1.89990
1079.13072,1.90027
1078.10101,1.90065
1077.07131,1.90102
1076.04160,1.90138
1075.01190,1.90170
1073.98220,1.90200
1072.95249,1.90228
1071.92279,1.90252
1070.89308,1.90271
1069.86338,1.90286
1068.83367,1.90297
1067.80397,1.90304
1066.77426,1.90307
1065.74456,1.90305
1064.71485,1.90299
1063.68515,1.90291
1062.65544,1.90280
1061.62574,1.90267
1060.59603,1.90252
1059.56633,1.90236
1058.53662,1.90216
1057.50692,1.90194
1056.47721,1.90168
1055.44751,1.90140
1054.41780,1.90110
1053.38810,1.90080
1052.35839,1.90048
1051.32869,1.90016
1050.29898,1.89982
1049.26928,1.89946
1048.23957,1.89907
1047.20987,1.89864
1046.18016,1.89817
1045.15046,1.89764
1044.12075,1.89706
1043.09105,1.89643
1042.06134,1.89573
1041.03164,1.89497
1040.00193,1.89415
1038.97223,1.89326
1037.94252,1.89233
1036.91282,1.89136
1035.88311,1.89035
1034.85341,1.88934
1033.82370,1.88831
1032.79400,1.88728
1031.76429,1.88627
1030.73459,1.88529
1029.70489,1.88436
1028.67518,1.88351
1027.64548,1.88273
1026.61577,1.88202
1025.58607,1.88136
1024.55636,1.88076
1023.52666,1.88023
1022.49695,1.87975
1021.46725,1.87936
1020.43754,1.87903
1019.40784,1.87878
1018.37813,1.87859
1017.34843,1.87843
1016.31872,1.87830
1015.28902,1.87819
1014.25931,1.87809
1013.22961,1.87801
1012.19990,1.87793
1011.17020,1.87785
1010.14049,1.87776
1009.11079,1.87767
1008.08108,1.87758
1007.05138,1.87747
1006.02167,1.87735
1004.99197,1.87725
1003.96226,1.87717
1002.93256,1.87713
1001.90285,1.87712
1000.87315,1.87713
999.84344,1.87717
998.81374,1.87726
997.78403,1.87740
996.75433,1.87761
995.72462,1.87788
994.69492,1.87821
993.66521,1.87857
992.63551,1.87897
991.60580,1.87939
990.57610,1.87983
989.54639,1.88030
988.51669,1.88076
987.48698,1.88121
986.45728,1.88164
985.42758,1.88203
984.39787,1.88237
983.36817,1.88264
982.33846,1.88285
981.30876,1.88303
980.27905,1.88320
979.24935,1.88337
978.21964,1.88354
977.18994,1.88371
976.16023,1.88387
975.13053,1.88401
974.10082,1.88414
973.07112,1.88428
972.04141,1.88441
971.01171,1.88452
969.98200,1.88460
968.95230,1.88465
967.92259,1.88467
966.89289,1.88464
965.86318,1.88454
964.83348,1.88433
963.80377,1.88400
962.77407,1.88353
961.74436,1.88291
960.71466,1.88215
959.68495,1.88126
958.65525,1.88025
957.62554,1.87916
956.59584,1.87801
955.56613,1.87684
954.53643,1.87568
953.50672,1.87455
952.47702,1.87345
951.44731,1.87239
950.41761,1.87139
949.38790,1.87048
948.35820,1.86966
947.32849,1.86894
946.29879,1.86831
945.26908,1.86777
944.23938,1.86731
943.20967,1.86690
942.17997,1.86650
941.15026,1.86609
940.12056,1.86568
939.09086,1.86527
938.06115,1.86485
937.03145,1.86441
936.00174,1.86396
934.97204,1.86349
933.94233,1.86299
932.91263,1.86249
931.88292,1.86200
930.85322,1.86153
929.82351,1.86110
928.79381,1.86069
927.76410,1.86033
926.73440,1.86000
925.70469,1.85973
924.67499,1.85951
923.64528,1.85937
922.61558,1.85928
921.58587,1.85925
920.55617,1.85925
919.52646,1.85926
918.49676,1.85927
917.46705,1.85928
916.43735,1.85931
915.40764,1.85935
914.37794,1.85941
913.34823,1.85949
912.31853,1.85960
911.28882,1.85972
910.25912,1.85986
909.22941,1.86002
908.19971,1.86018
907.17000,1.86032
906.14030,1.86044
905.11059,1.86055
904.08089,1.86065
903.05118,1.86073
902.02148,1.86076
900.99177,1.86076
899.96207,1.86072
898.93236,1.86065
897.90266,1.86054
896.87295,1.86037
895.84325,1.86011
894.81355,1.85976
893.78384,1.85934
892.75414,1.85885
891.72443,1.85832
890.69473,1.85778
889.66502,1.85727
888.63532,1.85679
887.60561,1.85634
886.57591,1.85592
885.54620,1.85555
884.51650,1.85517
883.48679,1.85479
882.45709,1.85441
881.42738,1.85406
880.39768,1.85374
879.36797,1.85345
878.33827,1.85317
877.30856,1.85291
876.27886,1.85267
875.24915,1.85248
874.21945,1.85231
873.18974,1.85214
872.16004,1.85193
871.13033,1.85170
870.10063,1.85145
869.07092,1.85120
868.04122,1.85097
867.01151,1.85076
865.98181,1.85058
864.95210,1.85039
863.92240,1.85018
862.89269,1.84996
861.86299,1.84971
860.83328,1.84941
859.80358,1.84903
858.77387,1.84859
857.74417,1.84811
856.71446,1.84761
855.68476,1.84710
854.65505,1.84660
853.62535,1.84612
852.59564,1.84568
851.56594,1.84525
850.53624,1.84485
849.50653,1.84445
848.47683,1.84404
847.44712,1.84362
846.41742,1.84323
845.38771,1.84287
844.35801,1.84255
843.32830,1.84227
842.29860,1.84199
841.26889,1.84172
840.23919,1.84145
839.20948,1.84119
838.17978,1.84093
837.15007,1.84066
836.12037,1.84036
835.09066,1.84006
834.06096,1.83981
833.03125,1.83960
832.00155,1.83947
830.97184,1.83942
829.94214,1.83942
828.91243,1.83948
827.88273,1.83957
826.85302,1.83966
825.82332,1.83975
824.79361,1.83982
823.76391,1.83985
822.73420,1.83988
821.70450,1.83992
820.67479,1.83995
819.64509,1.83997
818.61538,1.83996
817.58568,1.83992
816.55597,1.83985
815.52627,1.83976
814.49656,1.83963
813.46686,1.83946
812.43715,1.83927
811.40745,1.83908
810.37774,1.83891
809.34804,1.83874
808.31833,1.83856
807.28863,1.83836
806.25893,1.83815
805.22922,1.83792
804.19952,1.83768
803.16981,1.83742
802.14011,1.83716
801.11040,1.83690
800.08070,1.83664
799.05099,1.83640
798.02129,1.83620
796.99158,1.83605
795.96188,1.83592
794.93217,1.83582
793.90247,1.83573
792.87276,1.83565
791.84306,1.83560
790.81335,1.83558
789.78365,1.83560
788.75394,1.83566
787.72424,1.83578
786.69453,1.83596
785.66483,1.83616
784.63512,1.83636
783.60542,1.83660
782.57571,1.83687
781.54601,1.83717
780.51630,1.83751
779.48660,1.83790
778.45689,1.83833
777.42719,1.83879
776.39748,1.83924
775.36778,1.83967
774.33807,1.84007
773.30837,1.84042
772.27866,1.84069
771.24896,1.84087
770.21925,1.84095
769.18955,1.84095
768.15984,1.84088
767.13014,1.84075
766.10043,1.84054
765.07073,1.84028
764.04102,1.84001
763.01132,1.83972
761.98161,1.83941
760.95191,1.83908
759.92221,1.83876
758.89250,1.83849
757.86280,1.83828
756.83309,1.83814
755.80339,1.83807
754.77368,1.83809
753.74398,1.83818
752.71427,1.83834
751.68457,1.83859
750.65486,1.83893
749.62516,1.83936
748.59545,1.83988
747.56575,1.84050
746.53604,1.84114
745.50634,1.84174
744.47663,1.84229
743.44693,1.84273
742.41722,1.84306
741.38752,1.84330
740.35781,1.84347
739.32811,1.84354
738.29840,1.84345
737.26870,1.84313
736.23899,1.84257
735.20929,1.84173
734.17958,1.84061
733.14988,1.83917
732.12017,1.83743
731.09047,1.83541
730.06076,1.83316
729.03106,1.83077
728.00135,1.82834
726.97165,1.82594
725.94194,1.82360
724.91224,1.82137
723.88253,1.81928
722.85283,1.81731
721.82312,1.81543
720.79342,1.81371
719.76371,1.81225
718.73401,1.81115
717.70430,1.81047
716.67460,1.81023
715.64490,1.81033
714.61519,1.81068
713.58549,1.81123
712.55578,1.81192
711.52608,1.81272
710.49637,1.81356
709.46667,1.81439
708.43696,1.81516
707.40726,1.81585
706.37755,1.81648
705.34785,1.81706
704.31814,1.81760
703.28844,1.81809
702.25873,1.81849
701.22903,1.81879
700.19932,1.81897
699.16962,1.81903
698.13991,1.81897
697.11021,1.81884
696.08050,1.81870
695.05080,1.81858
694.02109,1.81846
692.99139,1.81829
691.96168,1.81804
690.93198,1.81772
689.90227,1.81736
688.87257,1.81699
687.84286,1.81662
686.81316,1.81623
685.78345,1.81579
684.75375,1.81527
683.72404,1.81469
682.69434,1.81410
681.66463,1.81355
680.63493,1.81306
679.60522,1.81262
678.57552,1.81222
677.54581,1.81186
676.51611,1.81158
675.48640,1.81137
674.45670,1.81120
673.42699,1.81106
672.39729,1.81096
671.36759,1.81089
670.33788,1.81086
669.30818,1.81086
668.27847,1.81090
667.24877,1.81102
666.21906,1.81118
665.18936,1.81137
664.15965,1.81153
663.12995,1.81167
662.10024,1.81172
661.07054,1.81167
660.04083,1.81154
659.01113,1.81132
657.98142,1.81101
656.95172,1.81057
655.92201,1.80997
654.89231,1.80918
653.86260,1.80821
652.83290,1.80712
651.80319,1.80593
650.77349,1.80462
649.74378,1.80323
648.71408,1.80183
647.68437,1.80053
646.65467,1.79937
645.62496,1.79833
644.59526,1.79740
643.56555,1.79658
642.53585,1.79587
641.50614,1.79529
640.47644,1.79486
639.44673,1.79458
638.41703,1.79442
637.38732,1.79434
636.35762,1.79429
635.32791,1.79421
634.29821,1.79400
633.26850,1.79357
632.23880,1.79286
631.20909,1.79187
630.17939,1.79069
629.14968,1.78945
628.11998,1.78818
627.09028,1.78695
626.06057,1.78582
625.03087,1.78483
624.00116,1.78403
622.97146,1.78340
621.94175,1.78291
620.91205,1.78253
619.88234,1.78229
618.85264,1.78221
617.82293,1.78231
616.79323,1.78259
615.76352,1.78301
614.73382,1.78354
613.70411,1.78411
612.67441,1.78467
611.64470,1.78516
610.61500,1.78516
609.58529,1.78516
608.55559,1.78516
607.52588,1.78516
606.49618,1.78516
605.46647,1.78516
604.43677,1.78516
603.40706,1.78516
602.37736,1.78516
601.34765,1.78516
600.31795,1.78516
599.28824,1.78516
