5998.03096,1.59461
5997.00125,1.60098
5995.97155,1.60166
5994.94184,1.59908
5993.91214,1.60025
5992.88243,1.60029
5991.85273,1.59597
5990.82302,1.59262
5989.79332,1.59460
5988.76361,1.60152
5987.73391,1.60596
5986.70420,1.60175
5985.67450,1.59604
5984.64479,1.59870
5983.61509,1.60243
5982.58538,1.59376
5981.55568,1.58075
5980.52597,1.58342
5979.49627,1.59695
5978.46656,1.59952
5977.43686,1.59238
5976.40715,1.59099
5975.37745,1.59751
5974.34774,1.60568
5973.31804,1.60950
5972.28833,1.60728
5971.25863,1.60390
5970.22892,1.59945
5969.19922,1.59388
5968.16951,1.59158
5967.13981,1.59066
5966.11010,1.58846
5965.08040,1.58851
5964.05069,1.59111
5963.02099,1.59729
5961.99128,1.60839
5960.96158,1.61202
5959.93187,1.60776
5958.90217,1.60890
5957.87247,1.61030
5956.84276,1.60546
5955.81306,1.59834
5954.78335,1.59186
5953.75365,1.59121
5952.72394,1.59597
5951.69424,1.59686
5950.66453,1.59444
5949.63483,1.59540
5948.60512,1.59704
5947.57542,1.59642
5946.54571,1.59297
5945.51601,1.58549
5944.48630,1.58472
5943.45660,1.59552
5942.42689,1.60717
5941.39719,1.61191
5940.36748,1.61267
5939.33778,1.61580
5938.30807,1.61430
5937.27837,1.60936
5936.24866,1.61218
5935.21896,1.61300
5934.18925,1.60700
5933.15955,1.60258
5932.12984,1.59820
5931.10014,1.59772
5930.07043,1.60266
5929.04073,1.60020
5928.01102,1.59291
5926.98132,1.59417
5925.95161,1.60604
5924.92191,1.61715
5923.89220,1.61593
5922.86250,1.60929
5921.83279,1.60853
5920.80309,1.61425
5919.77338,1.61446
5918.74368,1.60380
5917.71397,1.59565
5916.68427,1.59484
5915.65456,1.59784
5914.62486,1.60416
5913.59515,1.61053
5912.56545,1.61238
5911.53575,1.61299
5910.50604,1.61844
5909.47634,1.62165
5908.44663,1.61653
5907.41693,1.61058
5906.38722,1.61102
5905.35752,1.61249
5904.32781,1.60941
5903.29811,1.60912
5902.26840,1.61322
5901.23870,1.61699
5900.20899,1.62167
5899.17929,1.62528
5898.14958,1.62390
5897.11988,1.62084
5896.09017,1.62084
5895.06047,1.62370
5894.03076,1.62288
5893.00106,1.62046
5891.97135,1.62277
5890.94165,1.62397
5889.91194,1.62278
5888.88224,1.62117
5887.85253,1.61771
5886.82283,1.61921
5885.79312,1.62657
5884.76342,1.62865
5883.73371,1.62455
5882.70401,1.62291
5881.67430,1.62411
5880.64460,1.62443
5879.61489,1.62743
5878.58519,1.63284
5877.55548,1.63289
5876.52578,1.62924
5875.49607,1.63014
5874.46637,1.63654
5873.43666,1.64020
5872.40696,1.63737
5871.37725,1.63448
5870.34755,1.63485
5869.31784,1.63579
5868.28814,1.63528
5867.25844,1.63468
5866.22873,1.63462
5865.19903,1.63634
5864.16932,1.63956
5863.13962,1.63987
5862.10991,1.63859
5861.08021,1.63896
5860.05050,1.63837
5859.02080,1.63394
5857.99109,1.62986
5856.96139,1.63394
5855.93168,1.64160
5854.90198,1.63904
5853.87227,1.63257
5852.84257,1.63261
5851.81286,1.63504
5850.78316,1.63914
5849.75345,1.64151
5848.72375,1.63588
5847.69404,1.62972
5846.66434,1.63521
5845.63463,1.64759
5844.60493,1.64955
5843.57522,1.64416
5842.54552,1.64209
5841.51581,1.64141
5840.48611,1.64098
5839.45640,1.64264
5838.42670,1.64920
5837.39699,1.65514
5836.36729,1.65232
5835.33758,1.64620
5834.30788,1.64105
5833.27817,1.63565
5832.24847,1.63424
5831.21876,1.63783
5830.18906,1.64066
5829.15935,1.63798
5828.12965,1.63075
5827.09994,1.62915
5826.07024,1.63756
5825.04053,1.64660
5824.01083,1.64990
5822.98113,1.64999
5821.95142,1.64895
5820.92172,1.64518
5819.89201,1.64103
5818.86231,1.64093
5817.83260,1.64346
5816.80290,1.64516
5815.77319,1.64430
5814.74349,1.64309
5813.71378,1.64390
5812.68408,1.64383
5811.65437,1.64386
5810.62467,1.64630
5809.59496,1.64757
5808.56526,1.64610
5807.53555,1.64354
5806.50585,1.64114
5805.47614,1.63947
5804.44644,1.64008
5803.41673,1.64556
5802.38703,1.65443
5801.35732,1.65900
5800.32762,1.65156
5799.29791,1.64098
5798.26821,1.64102
5797.23850,1.64728
5796.20880,1.65065
5795.17909,1.64804
5794.14939,1.64347
5793.11968,1.64254
5792.08998,1.64235
5791.06027,1.64527
5790.03057,1.65377
5789.00086,1.65553
5787.97116,1.64895
5786.94145,1.64525
5785.91175,1.64339
5784.88204,1.64097
5783.85234,1.64241
5782.82263,1.64804
5781.79293,1.65249
5780.76322,1.65317
5779.73352,1.65342
5778.70382,1.65522
5777.67411,1.65536
5776.64441,1.65343
5775.61470,1.65237
5774.58500,1.65446
5773.55529,1.66070
5772.52559,1.66384
5771.49588,1.66183
5770.46618,1.65884
5769.43647,1.65247
5768.40677,1.64692
5767.37706,1.64763
5766.34736,1.65139
5765.31765,1.65513
5764.28795,1.65768
5763.25824,1.66113
5762.22854,1.66285
5761.19883,1.65618
5760.16913,1.64805
5759.13942,1.64423
5758.10972,1.64212
5757.08001,1.64264
5756.05031,1.64519
5755.02060,1.64621
5753.99090,1.64553
5752.96119,1.64492
5751.93149,1.64290
5750.90178,1.63771
5749.87208,1.63638
5748.84237,1.64288
5747.81267,1.64825
5746.78296,1.64839
5745.75326,1.64418
5744.72355,1.63651
5743.69385,1.63110
5742.66414,1.63326
5741.63444,1.64006
5740.60473,1.64228
5739.57503,1.64153
5738.54532,1.64287
5737.51562,1.64237
5736.48591,1.63894
5735.45621,1.63498
5734.42650,1.63233
5733.39680,1.63423
5732.36710,1.63749
5731.33739,1.63641
5730.30769,1.63446
5729.27798,1.63400
5728.24828,1.63479
5727.21857,1.63769
5726.18887,1.63860
5725.15916,1.63484
5724.12946,1.63391
5723.09975,1.63762
5722.07005,1.63823
5721.04034,1.63659
5720.01064,1.63430
5718.98093,1.62800
5717.95123,1.62567
5716.92152,1.63137
5715.89182,1.63749
5714.86211,1.64407
5713.83241,1.65092
5712.80270,1.65362
5711.77300,1.65131
5710.74329,1.64649
5709.71359,1.64613
5708.68388,1.64982
5707.65418,1.65106
5706.62447,1.64922
5705.59477,1.64812
5704.56506,1.64942
5703.53536,1.64865
5702.50565,1.64363
5701.47595,1.63982
5700.44624,1.64152
5699.41654,1.64813
5698.38683,1.65260
5697.35713,1.64999
5696.32742,1.64477
5695.29772,1.64123
5694.26801,1.64022
5693.23831,1.64074
5692.20860,1.64140
5691.17890,1.64118
5690.14919,1.63980
5689.11949,1.63814
5688.08979,1.63872
5687.06008,1.64093
5686.03038,1.64171
5685.00067,1.64349
5683.97097,1.64602
5682.94126,1.64559
5681.91156,1.64405
5680.88185,1.64212
5679.85215,1.64071
5678.82244,1.64334
5677.79274,1.64765
5676.76303,1.64774
5675.73333,1.64473
5674.70362,1.64424
5673.67392,1.64424
5672.64421,1.64275
5671.61451,1.64380
5670.58480,1.64757
5669.55510,1.65024
5668.52539,1.65112
5667.49569,1.65126
5666.46598,1.64769
5665.43628,1.64185
5664.40657,1.64097
5663.37687,1.64656
5662.34716,1.65180
5661.31746,1.65127
5660.28775,1.64829
5659.25805,1.64842
5658.22834,1.65091
5657.19864,1.65032
5656.16893,1.64453
5655.13923,1.64011
5654.10952,1.64022
5653.07982,1.64106
5652.05011,1.64254
5651.02041,1.64263
5649.99070,1.63944
5648.96100,1.63683
5647.93129,1.63543
5646.90159,1.63407
5645.87188,1.63598
5644.84218,1.63968
5643.81248,1.63838
5642.78277,1.63554
5641.75307,1.63559
5640.72336,1.63479
5639.69366,1.63067
5638.66395,1.62530
5637.63425,1.62333
5636.60454,1.62707
5635.57484,1.63251
5634.54513,1.63419
5633.51543,1.63271
5632.48572,1.63235
5631.45602,1.63491
5630.42631,1.64034
5629.39661,1.64321
5628.36690,1.63877
5627.33720,1.63560
5626.30749,1.63569
5625.27779,1.63428
5624.24808,1.63484
5623.21838,1.63513
5622.18867,1.63264
5621.15897,1.63191
5620.12926,1.63312
5619.09956,1.63292
5618.06985,1.63187
5617.04015,1.63385
5616.01044,1.63772
5614.98074,1.63909
5613.95103,1.63596
5612.92133,1.63052
5611.89162,1.62965
5610.86192,1.63442
5609.83221,1.63875
5608.80251,1.63734
5607.77280,1.63374
5606.74310,1.63315
5605.71339,1.63030
5604.68369,1.62556
5603.65398,1.62568
5602.62428,1.62876
5601.59457,1.63137
5600.56487,1.63445
5599.53517,1.63400
5598.50546,1.62877
5597.47576,1.62814
5596.44605,1.63308
5595.41635,1.63520
5594.38664,1.63361
5593.35694,1.63175
5592.32723,1.63172
5591.29753,1.63434
5590.26782,1.63623
5589.23812,1.63622
5588.20841,1.63527
5587.17871,1.63216
5586.14900,1.62888
5585.11930,1.62842
5584.08959,1.63037
5583.05989,1.63170
5582.03018,1.63015
5581.00048,1.62659
5579.97077,1.62311
5578.94107,1.62363
5577.91136,1.63008
5576.88166,1.63479
5575.85195,1.63336
5574.82225,1.63154
5573.79254,1.63293
5572.76284,1.63402
5571.73313,1.62918
5570.70343,1.62453
5569.67372,1.63011
5568.64402,1.63900
5567.61431,1.63799
5566.58461,1.63349
5565.55490,1.63340
5564.52520,1.63187
5563.49549,1.63090
5562.46579,1.63191
5561.43608,1.62803
5560.40638,1.62412
5559.37667,1.62813
5558.34697,1.63501
5557.31726,1.63731
5556.28756,1.63713
5555.25785,1.63515
5554.22815,1.62950
5553.19845,1.62690
5552.16874,1.63078
5551.13904,1.63304
5550.10933,1.63101
5549.07963,1.63050
5548.04992,1.63236
5547.02022,1.63095
5545.99051,1.62585
5544.96081,1.62451
5543.93110,1.62826
5542.90140,1.63002
5541.87169,1.62893
5540.84199,1.62673
5539.81228,1.62486
5538.78258,1.62843
5537.75287,1.63386
5536.72317,1.63505
5535.69346,1.63406
5534.66376,1.63198
5533.63405,1.62842
5532.60435,1.62470
5531.57464,1.62534
5530.54494,1.63172
5529.51523,1.63785
5528.48553,1.63642
5527.45582,1.62946
5526.42612,1.62517
5525.39641,1.62163
5524.36671,1.61922
5523.33700,1.62144
5522.30730,1.62299
5521.27759,1.62355
5520.24789,1.62544
5519.21818,1.62770
5518.18848,1.62978
5517.15877,1.62891
5516.12907,1.62593
5515.09936,1.62635
5514.06966,1.62811
5513.03995,1.62768
5512.01025,1.62867
5510.98054,1.63284
5509.95084,1.63644
5508.92114,1.63674
5507.89143,1.63544
5506.86173,1.63634
5505.83202,1.63831
5504.80232,1.63630
5503.77261,1.62946
5502.74291,1.62479
5501.71320,1.62707
5500.68350,1.62851
5499.65379,1.62453
5498.62409,1.62289
5497.59438,1.62448
5496.56468,1.62527
5495.53497,1.62689
5494.50527,1.63029
5493.47556,1.63211
5492.44586,1.63194
5491.41615,1.63372
5490.38645,1.63432
5489.35674,1.63196
5488.32704,1.62961
5487.29733,1.62693
5486.26763,1.62385
5485.23792,1.62190
5484.20822,1.62409
5483.17851,1.62776
5482.14881,1.62720
5481.11910,1.62653
5480.08940,1.63197
5479.05969,1.63746
5478.02999,1.63726
5477.00028,1.63734
5475.97058,1.63526
5474.94087,1.62610
5473.91117,1.61911
5472.88146,1.61804
5471.85176,1.61976
5470.82205,1.62069
5469.79235,1.62006
5468.76264,1.62096
5467.73294,1.62267
5466.70323,1.62223
5465.67353,1.62121
5464.64383,1.62066
5463.61412,1.62058
5462.58442,1.62168
5461.55471,1.62458
5460.52501,1.62696
5459.49530,1.62600
5458.46560,1.62500
5457.43589,1.62590
5456.40619,1.62950
5455.37648,1.63496
5454.34678,1.63626
5453.31707,1.63298
5452.28737,1.62923
5451.25766,1.62565
5450.22796,1.62393
5449.19825,1.62300
5448.16855,1.61990
5447.13884,1.61942
5446.10914,1.62414
5445.07943,1.62917
5444.04973,1.63262
5443.02002,1.63455
5441.99032,1.63029
5440.96061,1.62332
5439.93091,1.62661
5438.90120,1.63703
5437.87150,1.64166
5436.84179,1.63872
5435.81209,1.63527
5434.78238,1.63293
5433.75268,1.62997
5432.72297,1.62900
5431.69327,1.62782
5430.66356,1.62378
5429.63386,1.62541
5428.60415,1.63141
5427.57445,1.62853
5426.54474,1.62474
5425.51504,1.62981
5424.48533,1.63400
5423.45563,1.63113
5422.42592,1.62950
5421.39622,1.62983
5420.36652,1.63014
5419.33681,1.62982
5418.30711,1.62520
5417.27740,1.62015
5416.24770,1.62192
5415.21799,1.63068
5414.18829,1.63737
5413.15858,1.63456
5412.12888,1.62767
5411.09917,1.62394
5410.06947,1.62261
5409.03976,1.61767
5408.01006,1.61616
5406.98035,1.62499
5405.95065,1.63069
5404.92094,1.62830
5403.89124,1.62860
5402.86153,1.62781
5401.83183,1.62104
5400.80212,1.61481
5399.77242,1.61456
5398.74271,1.61894
5397.71301,1.62180
5396.68330,1.62071
5395.65360,1.61980
5394.62389,1.62038
5393.59419,1.61903
5392.56448,1.61912
5391.53478,1.62012
5390.50507,1.61913
5389.47537,1.62077
5388.44566,1.62402
5387.41596,1.62353
5386.38625,1.62009
5385.35655,1.61909
5384.32684,1.62239
5383.29714,1.62474
5382.26743,1.62299
5381.23773,1.62434
5380.20802,1.62951
5379.17832,1.62977
5378.14861,1.62434
5377.11891,1.61731
5376.08920,1.61639
5375.05950,1.62155
5374.02980,1.62356
5373.00009,1.62202
5371.97039,1.62038
5370.94068,1.61937
5369.91098,1.61894
5368.88127,1.61856
5367.85157,1.61723
5366.82186,1.61480
5365.79216,1.61381
5364.76245,1.61404
5363.73275,1.61311
5362.70304,1.61451
5361.67334,1.62133
5360.64363,1.62583
5359.61393,1.62373
5358.58422,1.62290
5357.55452,1.62602
5356.52481,1.62619
5355.49511,1.62257
5354.46540,1.62175
5353.43570,1.62250
5352.40599,1.62139
5351.37629,1.62182
5350.34658,1.62626
5349.31688,1.63359
5348.28717,1.63551
5347.25747,1.62919
5346.22776,1.62715
5345.19806,1.63270
5344.16835,1.63077
5343.13865,1.62375
5342.10894,1.62290
5341.07924,1.62670
5340.04953,1.63082
5339.01983,1.62883
5337.99012,1.61942
5336.96042,1.61574
5335.93071,1.62119
5334.90101,1.62624
5333.87130,1.62853
5332.84160,1.63263
5331.81189,1.63647
5330.78219,1.63481
5329.75249,1.63020
5328.72278,1.62404
5327.69308,1.61810
5326.66337,1.61793
5325.63367,1.61935
5324.60396,1.61872
5323.57426,1.62036
5322.54455,1.62411
5321.51485,1.62591
5320.48514,1.62516
5319.45544,1.62244
5318.42573,1.62063
5317.39603,1.62233
5316.36632,1.62360
5315.33662,1.62278
5314.30691,1.62455
5313.27721,1.63034
5312.24750,1.63373
5311.21780,1.63278
5310.18809,1.63148
5309.15839,1.63293
5308.12868,1.63742
5307.09898,1.63547
5306.06927,1.62573
5305.03957,1.62155
5304.00986,1.62729
5302.98016,1.63241
5301.95045,1.63044
5300.92075,1.62837
5299.89104,1.62811
5298.86134,1.62917
5297.83163,1.63530
5296.80193,1.64100
5295.77222,1.63838
5294.74252,1.63171
5293.71281,1.63065
5292.68311,1.63466
5291.65340,1.63537
5290.62370,1.63409
5289.59399,1.63754
5288.56429,1.64243
5287.53458,1.64245
5286.50488,1.63734
5285.47518,1.63188
5284.44547,1.63236
5283.41577,1.63821
5282.38606,1.64308
5281.35636,1.64729
5280.32665,1.65312
5279.29695,1.65690
5278.26724,1.65468
5277.23754,1.64846
5276.20783,1.64647
5275.17813,1.64651
5274.14842,1.64166
5273.11872,1.63934
5272.08901,1.64342
5271.05931,1.64769
5270.02960,1.64908
5268.99990,1.64849
5267.97019,1.64862
5266.94049,1.65309
5265.91078,1.65978
5264.88108,1.66107
5263.85137,1.65683
5262.82167,1.65438
5261.79196,1.65670
5260.76226,1.66017
5259.73255,1.65814
5258.70285,1.65295
5257.67314,1.65107
5256.64344,1.65145
5255.61373,1.65418
5254.58403,1.65950
5253.55432,1.66127
5252.52462,1.66104
5251.49491,1.66410
5250.46521,1.66882
5249.43550,1.67167
5248.40580,1.67084
5247.37609,1.66504
5246.34639,1.65964
5245.31668,1.66137
5244.28698,1.66624
5243.25727,1.66947
5242.22757,1.67600
5241.19786,1.68110
5240.16816,1.67431
5239.13846,1.66593
5238.10875,1.66829
5237.07905,1.67358
5236.04934,1.67558
5235.01964,1.67766
5233.98993,1.67873
5232.96023,1.67987
5231.93052,1.68172
5230.90082,1.68069
5229.87111,1.67741
5228.84141,1.67452
5227.81170,1.67477
5226.78200,1.67879
5225.75229,1.68046
5224.72259,1.68056
5223.69288,1.68357
5222.66318,1.68357
5221.63347,1.68016
5220.60377,1.67973
5219.57406,1.68177
5218.54436,1.67989
5217.51465,1.67646
5216.48495,1.67957
5215.45524,1.68687
5214.42554,1.69113
5213.39583,1.69134
5212.36613,1.69140
5211.33642,1.69176
5210.30672,1.68951
5209.27701,1.68433
5208.24731,1.68006
5207.21760,1.67997
5206.18790,1.68655
5205.15819,1.69263
5204.12849,1.69160
5203.09878,1.69057
5202.06908,1.69136
5201.03937,1.69174
5200.00967,1.69304
5198.97996,1.69776
5197.95026,1.70448
5196.92055,1.70419
5195.89085,1.69697
5194.86115,1.69090
5193.83144,1.69127
5192.80174,1.69669
5191.77203,1.69766
5190.74233,1.69352
5189.71262,1.69338
5188.68292,1.69712
5187.65321,1.69660
5186.62351,1.69284
5185.59380,1.69210
5184.56410,1.69562
5183.53439,1.70474
5182.50469,1.71487
5181.47498,1.71899
5180.44528,1.71796
5179.41557,1.71326
5178.38587,1.70534
5177.35616,1.69812
5176.32646,1.69724
5175.29675,1.70250
5174.26705,1.70794
5173.23734,1.71045
5172.20764,1.71037
5171.17793,1.70420
5170.14823,1.69427
5169.11852,1.69108
5168.08882,1.69658
5167.05911,1.70620
5166.02941,1.71291
5164.99970,1.71225
5163.97000,1.70887
5162.94029,1.70619
5161.91059,1.70337
5160.88088,1.70274
5159.85118,1.70376
5158.82147,1.70467
5157.79177,1.70982
5156.76206,1.71462
5155.73236,1.71025
5154.70265,1.70284
5153.67295,1.70025
5152.64324,1.70039
5151.61354,1.69914
5150.58384,1.69830
5149.55413,1.70045
5148.52443,1.70522
5147.49472,1.71097
5146.46502,1.71356
5145.43531,1.71081
5144.40561,1.70631
5143.37590,1.70414
5142.34620,1.70405
5141.31649,1.70325
5140.28679,1.70241
5139.25708,1.70394
5138.22738,1.70809
5137.19767,1.71241
5136.16797,1.71257
5135.13826,1.70941
5134.10856,1.70509
5133.07885,1.69961
5132.04915,1.69612
5131.01944,1.69574
5129.98974,1.69917
5128.96003,1.70532
5127.93033,1.70748
5126.90062,1.70585
5125.87092,1.70707
5124.84121,1.70872
5123.81151,1.70622
5122.78180,1.70215
5121.75210,1.69898
5120.72239,1.69676
5119.69269,1.69722
5118.66298,1.70223
5117.63328,1.70653
5116.60357,1.70874
5115.57387,1.71271
5114.54416,1.71253
5113.51446,1.70530
5112.48475,1.69916
5111.45505,1.69805
5110.42534,1.69825
5109.39564,1.69708
5108.36593,1.69468
5107.33623,1.69397
5106.30653,1.69747
5105.27682,1.70220
5104.24712,1.70399
5103.21741,1.70314
5102.18771,1.70255
5101.15800,1.70354
5100.12830,1.70471
5099.09859,1.70690
5098.06889,1.71036
5097.03918,1.70816
5096.00948,1.70191
5094.97977,1.70152
5093.95007,1.70664
5092.92036,1.70854
5091.89066,1.70296
5090.86095,1.69679
5089.83125,1.69611
5088.80154,1.70014
5087.77184,1.70541
5086.74213,1.70614
5085.71243,1.70150
5084.68272,1.69906
5083.65302,1.70290
5082.62331,1.70547
5081.59361,1.70270
5080.56390,1.70157
5079.53420,1.70404
5078.50449,1.70391
5077.47479,1.69990
5076.44508,1.69894
5075.41538,1.70345
5074.38567,1.70467
5073.35597,1.69985
5072.32626,1.69742
5071.29656,1.69984
5070.26685,1.70142
5069.23715,1.69956
5068.20744,1.69682
5067.17774,1.69464
5066.14803,1.69244
5065.11833,1.69070
5064.08862,1.69005
5063.05892,1.69119
5062.02921,1.69279
5060.99951,1.69278
5059.96981,1.69464
5058.94010,1.69857
5057.91040,1.69983
5056.88069,1.69770
5055.85099,1.69551
5054.82128,1.69641
5053.79158,1.69693
5052.76187,1.69547
5051.73217,1.69826
5050.70246,1.70061
5049.67276,1.69596
5048.64305,1.69192
5047.61335,1.69193
5046.58364,1.69571
5045.55394,1.70225
5044.52423,1.70497
5043.49453,1.70296
5042.46482,1.69962
5041.43512,1.69552
5040.40541,1.69083
5039.37571,1.68743
5038.34600,1.68717
5037.31630,1.69043
5036.28659,1.69513
5035.25689,1.69682
5034.22718,1.69357
5033.19748,1.68921
5032.16777,1.68689
5031.13807,1.68665
5030.10836,1.68954
5029.07866,1.69409
5028.04895,1.69606
5027.01925,1.69153
5025.98954,1.68492
5024.95984,1.68719
5023.93013,1.69356
5022.90043,1.69398
5021.87072,1.69297
5020.84102,1.69245
5019.81131,1.68958
5018.78161,1.68757
5017.75190,1.68665
5016.72220,1.68492
5015.69250,1.68328
5014.66279,1.67814
5013.63309,1.67144
5012.60338,1.67374
5011.57368,1.68418
5010.54397,1.69120
5009.51427,1.69063
5008.48456,1.69022
5007.45486,1.69356
5006.42515,1.69427
5005.39545,1.69039
5004.36574,1.68580
5003.33604,1.68239
5002.30633,1.68083
5001.27663,1.68070
5000.24692,1.68059
4999.21722,1.68110
4998.18751,1.68099
4997.15781,1.68129
4996.12810,1.68689
4995.09840,1.69169
4994.06869,1.68676
4993.03899,1.67913
4992.00928,1.67736
4990.97958,1.67913
4989.94987,1.68112
4988.92017,1.68521
4987.89046,1.69224
4986.86076,1.69658
4985.83105,1.69191
4984.80135,1.68360
4983.77164,1.68257
4982.74194,1.68695
4981.71223,1.68837
4980.68253,1.68641
4979.65282,1.68263
4978.62312,1.67959
4977.59341,1.67983
4976.56371,1.67985
4975.53400,1.67771
4974.50430,1.67731
4973.47459,1.68106
4972.44489,1.68596
4971.41519,1.68868
4970.38548,1.68897
4969.35578,1.68646
4968.32607,1.68304
4967.29637,1.68184
4966.26666,1.68139
4965.23696,1.68123
4964.20725,1.68163
4963.17755,1.68031
4962.14784,1.67912
4961.11814,1.68015
4960.08843,1.68124
4959.05873,1.68363
4958.02902,1.68878
4956.99932,1.69170
4955.96961,1.68836
4954.93991,1.68175
4953.91020,1.67788
4952.88050,1.67840
4951.85079,1.67819
4950.82109,1.67533
4949.79138,1.67539
4948.76168,1.67997
4947.73197,1.68390
4946.70227,1.68408
4945.67256,1.68250
4944.64286,1.68150
4943.61315,1.68053
4942.58345,1.67826
4941.55374,1.67667
4940.52404,1.67774
4939.49433,1.67886
4938.46463,1.67901
4937.43492,1.68053
4936.40522,1.68157
4935.37551,1.67915
4934.34581,1.67606
4933.31610,1.67601
4932.28640,1.67870
4931.25669,1.68365
4930.22699,1.68978
4929.19728,1.69180
4928.16758,1.68649
4927.13788,1.67986
4926.10817,1.67846
4925.07847,1.68025
4924.04876,1.67822
4923.01906,1.67248
4921.98935,1.67140
4920.95965,1.67692
4919.92994,1.68373
4918.90024,1.68798
4917.87053,1.68766
4916.84083,1.68314
4915.81112,1.67908
4914.78142,1.67941
4913.75171,1.68258
4912.72201,1.68401
4911.69230,1.68293
4910.66260,1.68258
4909.63289,1.68308
4908.60319,1.68451
4907.57348,1.68643
4906.54378,1.68615
4905.51407,1.68304
4904.48437,1.67795
4903.45466,1.67651
4902.42496,1.68162
4901.39525,1.68835
4900.36555,1.69155
4899.33584,1.68939
4898.30614,1.68531
4897.27643,1.68492
4896.24673,1.68766
4895.21702,1.68881
4894.18732,1.68894
4893.15761,1.69089
4892.12791,1.69209
4891.09820,1.69000
4890.06850,1.68678
4889.03879,1.68547
4888.00909,1.68625
4886.97938,1.68709
4885.94968,1.68714
4884.91997,1.68731
4883.89027,1.68860
4882.86056,1.68943
4881.83086,1.68922
4880.80116,1.68905
4879.77145,1.68715
4878.74175,1.68604
4877.71204,1.68719
4876.68234,1.68648
4875.65263,1.68636
4874.62293,1.68904
4873.59322,1.68952
4872.56352,1.68821
4871.53381,1.68741
4870.50411,1.68568
4869.47440,1.68483
4868.44470,1.68489
4867.41499,1.68389
4866.38529,1.68404
4865.35558,1.68703
4864.32588,1.68986
4863.29617,1.68822
4862.26647,1.68371
4861.23676,1.68269
4860.20706,1.68699
4859.17735,1.69056
4858.14765,1.68976
4857.11794,1.68805
4856.08824,1.68762
4855.05853,1.68793
4854.02883,1.68901
4852.99912,1.69154
4851.96942,1.69580
4850.93971,1.69984
4849.91001,1.70037
4848.88030,1.69611
4847.85060,1.69100
4846.82089,1.68995
4845.79119,1.69238
4844.76148,1.69420
4843.73178,1.69388
4842.70207,1.69484
4841.67237,1.69685
4840.64266,1.69626
4839.61296,1.69276
4838.58325,1.68791
4837.55355,1.68629
4836.52385,1.69213
4835.49414,1.69910
4834.46444,1.69729
4833.43473,1.69137
4832.40503,1.69003
4831.37532,1.69292
4830.34562,1.69646
4829.31591,1.69765
4828.28621,1.69648
4827.25650,1.69544
4826.22680,1.69539
4825.19709,1.69529
4824.16739,1.69574
4823.13768,1.69742
4822.10798,1.69651
4821.07827,1.69239
4820.04857,1.69040
4819.01886,1.69085
4817.98916,1.69231
4816.95945,1.69610
4815.92975,1.69955
4814.90004,1.69981
4813.87034,1.69808
4812.84063,1.69544
4811.81093,1.69371
4810.78122,1.69396
4809.75152,1.69459
4808.72181,1.69551
4807.69211,1.69837
4806.66240,1.70125
4805.63270,1.69951
4804.60299,1.69517
4803.57329,1.69393
4802.54358,1.69579
4801.51388,1.69953
4800.48417,1.70323
4799.45447,1.70511
4798.42476,1.70484
4797.39506,1.70246
4796.36535,1.70050
4795.33565,1.69902
4794.30594,1.69835
4793.27624,1.69830
4792.24654,1.69573
4791.21683,1.69427
4790.18713,1.69649
4789.15742,1.69847
4788.12772,1.69895
4787.09801,1.70026
4786.06831,1.70143
4785.03860,1.69861
4784.00890,1.69563
4782.97919,1.69612
4781.94949,1.69694
4780.91978,1.69786
4779.89008,1.70067
4778.86037,1.70387
4777.83067,1.70541
4776.80096,1.70388
4775.77126,1.70041
4774.74155,1.69924
4773.71185,1.69928
4772.68214,1.69882
4771.65244,1.69976
4770.62273,1.70128
4769.59303,1.70257
4768.56332,1.70334
4767.53362,1.70339
4766.50391,1.70258
4765.47421,1.69948
4764.44450,1.69402
4763.41480,1.69120
4762.38509,1.69492
4761.35539,1.69945
4760.32568,1.70002
4759.29598,1.69983
4758.26627,1.70161
4757.23657,1.70289
4756.20686,1.70120
4755.17716,1.69879
4754.14745,1.69896
4753.11775,1.70095
4752.08804,1.70062
4751.05834,1.69983
4750.02863,1.70224
4748.99893,1.70485
4747.96923,1.70506
4746.93952,1.70315
4745.90982,1.70101
4744.88011,1.69999
4743.85041,1.69848
4742.82070,1.69652
4741.79100,1.69706
4740.76129,1.70195
4739.73159,1.70782
4738.70188,1.70902
4737.67218,1.70580
4736.64247,1.70190
4735.61277,1.69999
4734.58306,1.70165
4733.55336,1.70471
4732.52365,1.70427
4731.49395,1.70077
4730.46424,1.69931
4729.43454,1.69895
4728.40483,1.69851
4727.37513,1.70098
4726.34542,1.70452
4725.31572,1.70541
4724.28601,1.70509
4723.25631,1.70402
4722.22660,1.70060
4721.19690,1.69842
4720.16719,1.70041
4719.13749,1.70383
4718.10778,1.70633
4717.07808,1.70709
4716.04837,1.70540
4715.01867,1.70249
4713.98896,1.70176
4712.95926,1.70337
4711.92955,1.70460
4710.89985,1.70640
4709.87014,1.70845
4708.84044,1.70785
4707.81073,1.70572
4706.78103,1.70270
4705.75132,1.69962
4704.72162,1.70168
4703.69191,1.70948
4702.66221,1.71451
4701.63251,1.71079
4700.60280,1.70407
4699.57310,1.70127
4698.54339,1.70255
4697.51369,1.70601
4696.48398,1.70938
4695.45428,1.71013
4694.42457,1.70936
4693.39487,1.71107
4692.36516,1.71364
4691.33546,1.71175
4690.30575,1.70709
4689.27605,1.70510
4688.24634,1.70653
4687.21664,1.70872
4686.18693,1.70954
4685.15723,1.70990
4684.12752,1.71013
4683.09782,1.71012
4682.06811,1.70989
4681.03841,1.70816
4680.00870,1.70740
4678.97900,1.70761
4677.94929,1.70610
4676.91959,1.70516
4675.88988,1.70482
4674.86018,1.70474
4673.83047,1.70710
4672.80077,1.71068
4671.77106,1.71198
4670.74136,1.71105
4669.71165,1.71133
4668.68195,1.71133
4667.65224,1.70913
4666.62254,1.70941
4665.59283,1.71183
4664.56313,1.71062
4663.53342,1.70719
4662.50372,1.70518
4661.47401,1.70531
4660.44431,1.70682
4659.41460,1.70902
4658.38490,1.71230
4657.35520,1.71395
4656.32549,1.71316
4655.29579,1.71272
4654.26608,1.71315
4653.23638,1.71344
4652.20667,1.71370
4651.17697,1.71358
4650.14726,1.71104
4649.11756,1.70911
4648.08785,1.71067
4647.05815,1.71270
4646.02844,1.71247
4644.99874,1.71139
4643.96903,1.71198
4642.93933,1.71254
4641.90962,1.71239
4640.87992,1.71232
4639.85021,1.71051
4638.82051,1.70701
4637.79080,1.70338
4636.76110,1.70167
4635.73139,1.70421
4634.70169,1.70763
4633.67198,1.70715
4632.64228,1.70587
4631.61257,1.70627
4630.58287,1.70770
4629.55316,1.70975
4628.52346,1.71023
4627.49375,1.70877
4626.46405,1.70651
4625.43434,1.70499
4624.40464,1.70640
4623.37493,1.70957
4622.34523,1.71031
4621.31552,1.70890
4620.28582,1.70804
4619.25611,1.70796
4618.22641,1.70869
4617.19670,1.70876
4616.16700,1.70710
4615.13729,1.70533
4614.10759,1.70451
4613.07789,1.70418
4612.04818,1.70531
4611.01848,1.70779
4609.98877,1.70858
4608.95907,1.70848
4607.92936,1.70908
4606.89966,1.70899
4605.86995,1.70818
4604.84025,1.70619
4603.81054,1.70325
4602.78084,1.70230
4601.75113,1.70359
4600.72143,1.70655
4599.69172,1.70970
4598.66202,1.71063
4597.63231,1.71023
4596.60261,1.70822
4595.57290,1.70578
4594.54320,1.70469
4593.51349,1.70481
4592.48379,1.70673
4591.45408,1.70808
4590.42438,1.70711
4589.39467,1.70536
4588.36497,1.70502
4587.33526,1.70574
4586.30556,1.70591
4585.27585,1.70726
4584.24615,1.70899
4583.21644,1.70868
4582.18674,1.70762
4581.15703,1.70654
4580.12733,1.70578
4579.09762,1.70556
4578.06792,1.70477
4577.03821,1.70417
4576.00851,1.70400
4574.97880,1.70329
4573.94910,1.70275
4572.91939,1.70370
4571.88969,1.70625
4570.85998,1.70866
4569.83028,1.70886
4568.80058,1.70598
4567.77087,1.70295
4566.74117,1.70323
4565.71146,1.70502
4564.68176,1.70641
4563.65205,1.70899
4562.62235,1.71122
4561.59264,1.70990
4560.56294,1.70841
4559.53323,1.71020
4558.50353,1.71155
4557.47382,1.70966
4556.44412,1.70690
4555.41441,1.70638
4554.38471,1.70750
4553.35500,1.70718
4552.32530,1.70549
4551.29559,1.70414
4550.26589,1.70422
4549.23618,1.70662
4548.20648,1.70834
4547.17677,1.70708
4546.14707,1.70528
4545.11736,1.70420
4544.08766,1.70386
4543.05795,1.70553
4542.02825,1.70710
4540.99854,1.70532
4539.96884,1.70434
4538.93913,1.70706
4537.90943,1.70840
4536.87972,1.70700
4535.85002,1.70743
4534.82031,1.71004
4533.79061,1.71015
4532.76090,1.70739
4531.73120,1.70632
4530.70149,1.70756
4529.67179,1.70810
4528.64208,1.70696
4527.61238,1.70532
4526.58267,1.70453
4525.55297,1.70486
4524.52326,1.70647
4523.49356,1.70957
4522.46386,1.71141
4521.43415,1.70981
4520.40445,1.70774
4519.37474,1.70802
4518.34504,1.70876
4517.31533,1.70807
4516.28563,1.70723
4515.25592,1.70770
4514.22622,1.70962
4513.19651,1.71154
4512.16681,1.71191
4511.13710,1.71213
4510.10740,1.71302
4509.07769,1.71226
4508.04799,1.71005
4507.01828,1.70933
4505.98858,1.71021
4504.95887,1.70994
4503.92917,1.70949
4502.89946,1.71155
4501.86976,1.71292
4500.84005,1.71211
4499.81035,1.71275
4498.78064,1.71384
4497.75094,1.71323
4496.72123,1.71241
4495.69153,1.71318
4494.66182,1.71534
4493.63212,1.71583
4492.60241,1.71502
4491.57271,1.71548
4490.54300,1.71544
4489.51330,1.71579
4488.48359,1.71900
4487.45389,1.72131
4486.42418,1.72066
4485.39448,1.72070
4484.36477,1.72136
4483.33507,1.72068
4482.30536,1.71879
4481.27566,1.71584
4480.24595,1.71475
4479.21625,1.71746
4478.18655,1.71982
4477.15684,1.71969
4476.12714,1.72080
4475.09743,1.72387
4474.06773,1.72616
4473.03802,1.72784
4472.00832,1.72824
4470.97861,1.72548
4469.94891,1.72257
4468.91920,1.72248
4467.88950,1.72398
4466.85979,1.72586
4465.83009,1.72782
4464.80038,1.72952
4463.77068,1.72953
4462.74097,1.72717
4461.71127,1.72626
4460.68156,1.72917
4459.65186,1.73138
4458.62215,1.72999
4457.59245,1.72975
4456.56274,1.73259
4455.53304,1.73428
4454.50333,1.73424
4453.47363,1.73456
4452.44392,1.73515
4451.41422,1.73545
4450.38451,1.73625
4449.35481,1.73737
4448.32510,1.73658
4447.29540,1.73616
4446.26569,1.73891
4445.23599,1.74319
4444.20628,1.74559
4443.17658,1.74430
4442.14687,1.74352
4441.11717,1.74695
4440.08746,1.75118
4439.05776,1.75189
4438.02805,1.75174
4436.99835,1.75347
4435.96864,1.75470
4434.93894,1.75537
4433.90924,1.75698
4432.87953,1.75839
4431.84983,1.75813
4430.82012,1.75830
4429.79042,1.76202
4428.76071,1.76548
4427.73101,1.76420
4426.70130,1.76259
4425.67160,1.76404
4424.64189,1.76700
4423.61219,1.77103
4422.58248,1.77351
4421.55278,1.77246
4420.52307,1.77231
4419.49337,1.77568
4418.46366,1.77857
4417.43396,1.77908
4416.40425,1.77992
4415.37455,1.78076
4414.34484,1.78054
4413.31514,1.78189
4412.28543,1.78536
4411.25573,1.78779
4410.22602,1.78842
4409.19632,1.78994
4408.16661,1.79094
4407.13691,1.79012
4406.10720,1.79121
4405.07750,1.79368
4404.04779,1.79447
4403.01809,1.79541
4401.98838,1.79725
4400.95868,1.79811
4399.92897,1.79981
4398.89927,1.80332
4397.86956,1.80545
4396.83986,1.80512
4395.81015,1.80510
4394.78045,1.80726
4393.75074,1.80920
4392.72104,1.80799
4391.69133,1.80577
4390.66163,1.80498
4389.63193,1.80460
4388.60222,1.80495
4387.57252,1.80707
4386.54281,1.81003
4385.51311,1.81299
4384.48340,1.81578
4383.45370,1.81707
4382.42399,1.81685
4381.39429,1.81600
4380.36458,1.81631
4379.33488,1.81996
4378.30517,1.82442
4377.27547,1.82677
4376.24576,1.82729
4375.21606,1.82804
4374.18635,1.82851
4373.15665,1.82608
4372.12694,1.82447
4371.09724,1.82712
4370.06753,1.83067
4369.03783,1.83368
4368.00812,1.83573
4366.97842,1.83617
4365.94871,1.83812
4364.91901,1.84095
4363.88930,1.84328
4362.85960,1.84542
4361.82989,1.84581
4360.80019,1.84714
4359.77048,1.84847
4358.74078,1.84591
4357.71107,1.84531
4356.68137,1.84998
4355.65166,1.85450
4354.62196,1.85736
4353.59225,1.85845
4352.56255,1.85752
4351.53284,1.85836
4350.50314,1.86195
4349.47343,1.86481
4348.44373,1.86515
4347.41402,1.86492
4346.38432,1.86572
4345.35461,1.86695
4344.32491,1.86813
4343.29521,1.86974
4342.26550,1.87141
4341.23580,1.87146
4340.20609,1.87088
4339.17639,1.87000
4338.14668,1.86854
4337.11698,1.87007
4336.08727,1.87441
4335.05757,1.87682
4334.02786,1.87656
4332.99816,1.87580
4331.96845,1.87542
4330.93875,1.87605
4329.90904,1.87611
4328.87934,1.87449
4327.84963,1.87461
4326.81993,1.87606
4325.79022,1.87701
4324.76052,1.87913
4323.73081,1.88192
4322.70111,1.88363
4321.67140,1.88357
4320.64170,1.88017
4319.61199,1.87403
4318.58229,1.86917
4317.55258,1.86675
4316.52288,1.86550
4315.49317,1.86481
4314.46347,1.86310
4313.43376,1.85985
4312.40406,1.85553
4311.37435,1.85143
4310.34465,1.84912
4309.31494,1.84799
4308.28524,1.84836
4307.25553,1.85013
4306.22583,1.85069
4305.19612,1.84880
4304.16642,1.84612
4303.13671,1.84522
4302.10701,1.84691
4301.07730,1.84924
4300.04760,1.84829
4299.01790,1.84489
4297.98819,1.84348
4296.95849,1.84343
4295.92878,1.84324
4294.89908,1.84420
4293.86937,1.84632
4292.83967,1.84810
4291.80996,1.84815
4290.78026,1.84694
4289.75055,1.84733
4288.72085,1.84874
4287.69114,1.84811
4286.66144,1.84739
4285.63173,1.84908
4284.60203,1.85092
4283.57232,1.85108
4282.54262,1.84990
4281.51291,1.84893
4280.48321,1.84912
4279.45350,1.84905
4278.42380,1.85008
4277.39409,1.85326
4276.36439,1.85555
4275.33468,1.85646
4274.30498,1.85854
4273.27527,1.86078
4272.24557,1.86035
4271.21586,1.86001
4270.18616,1.86199
4269.15645,1.86282
4268.12675,1.86248
4267.09704,1.86419
4266.06734,1.86664
4265.03763,1.86741
4264.00793,1.86628
4262.97822,1.86499
4261.94852,1.86458
4260.91881,1.86445
4259.88911,1.86582
4258.85940,1.86761
4257.82970,1.86856
4256.79999,1.86919
4255.77029,1.86728
4254.74059,1.86398
4253.71088,1.86343
4252.68118,1.86650
4251.65147,1.87073
4250.62177,1.87139
4249.59206,1.86691
4248.56236,1.86105
4247.53265,1.85739
4246.50295,1.85631
4245.47324,1.85588
4244.44354,1.85489
4243.41383,1.85412
4242.38413,1.85385
4241.35442,1.85348
4240.32472,1.85323
4239.29501,1.85194
4238.26531,1.84852
4237.23560,1.84633
4236.20590,1.84723
4235.17619,1.84770
4234.14649,1.84546
4233.11678,1.84284
4232.08708,1.84324
4231.05737,1.84785
4230.02767,1.85234
4228.99796,1.85096
4227.96826,1.84619
4226.93855,1.84334
4225.90885,1.84297
4224.87914,1.84389
4223.84944,1.84414
4222.81973,1.84348
4221.79003,1.84402
4220.76032,1.84673
4219.73062,1.85085
4218.70091,1.85313
4217.67121,1.85279
4216.64150,1.85147
4215.61180,1.84792
4214.58209,1.84372
4213.55239,1.84316
4212.52268,1.84554
4211.49298,1.84640
4210.46328,1.84658
4209.43357,1.84786
4208.40387,1.84784
4207.37416,1.84654
4206.34446,1.84568
4205.31475,1.84667
4204.28505,1.84797
4203.25534,1.84685
4202.22564,1.84551
4201.19593,1.84696
4200.16623,1.85022
4199.13652,1.85263
4198.10682,1.85244
4197.07711,1.84988
4196.04741,1.84791
4195.01770,1.84815
4193.98800,1.84971
4192.95829,1.85112
4191.92859,1.85115
4190.89888,1.85011
4189.86918,1.84818
4188.83947,1.84575
4187.80977,1.84474
4186.78006,1.84650
4185.75036,1.84904
4184.72065,1.84924
4183.69095,1.84792
4182.66124,1.84770
4181.63154,1.84818
4180.60183,1.84726
4179.57213,1.84604
4178.54242,1.84724
4177.51272,1.84901
4176.48301,1.84866
4175.45331,1.84778
4174.42360,1.84808
4173.39390,1.84936
4172.36419,1.85057
4171.33449,1.85094
4170.30478,1.85098
4169.27508,1.85106
4168.24537,1.85173
4167.21567,1.85116
4166.18596,1.84742
4165.15626,1.84487
4164.12656,1.84700
4163.09685,1.84994
4162.06715,1.84955
4161.03744,1.84838
4160.00774,1.84867
4158.97803,1.84930
4157.94833,1.84989
4156.91862,1.84902
4155.88892,1.84706
4154.85921,1.84681
4153.82951,1.84828
4152.79980,1.84926
4151.77010,1.84887
4150.74039,1.84749
4149.71069,1.84545
4148.68098,1.84421
4147.65128,1.84527
4146.62157,1.84744
4145.59187,1.84710
4144.56216,1.84431
4143.53246,1.84288
4142.50275,1.84334
4141.47305,1.84368
4140.44334,1.84379
4139.41364,1.84548
4138.38393,1.84810
4137.35423,1.84887
4136.32452,1.84817
4135.29482,1.84828
4134.26511,1.84864
4133.23541,1.84820
4132.20570,1.84748
4131.17600,1.84743
4130.14629,1.84871
4129.11659,1.84889
4128.08688,1.84659
4127.05718,1.84417
4126.02747,1.84384
4124.99777,1.84576
4123.96806,1.84687
4122.93836,1.84488
4121.90865,1.84183
4120.87895,1.84126
4119.84925,1.84243
4118.81954,1.84294
4117.78984,1.84308
4116.76013,1.84375
4115.73043,1.84566
4114.70072,1.84655
4113.67102,1.84524
4112.64131,1.84492
4111.61161,1.84550
4110.58190,1.84410
4109.55220,1.84238
4108.52249,1.84275
4107.49279,1.84495
4106.46308,1.84715
4105.43338,1.84764
4104.40367,1.84783
4103.37397,1.84719
4102.34426,1.84438
4101.31456,1.84285
4100.28485,1.84438
4099.25515,1.84678
4098.22544,1.84870
4097.19574,1.84977
4096.16603,1.85056
4095.13633,1.85076
4094.10662,1.84994
4093.07692,1.84989
4092.04721,1.85051
4091.01751,1.85189
4089.98780,1.85273
4088.95810,1.85057
4087.92839,1.84836
4086.89869,1.84943
4085.86898,1.85259
4084.83928,1.85556
4083.80957,1.85692
4082.77987,1.85539
4081.75016,1.85304
4080.72046,1.85255
4079.69075,1.85225
4078.66105,1.85035
4077.63134,1.84824
4076.60164,1.84744
4075.57194,1.84709
4074.54223,1.84653
4073.51253,1.84702
4072.48282,1.84837
4071.45312,1.84916
4070.42341,1.85016
4069.39371,1.85146
4068.36400,1.85247
4067.33430,1.85309
4066.30459,1.85238
4065.27489,1.85160
4064.24518,1.85298
4063.21548,1.85614
4062.18577,1.85915
4061.15607,1.86051
4060.12636,1.85960
4059.09666,1.85783
4058.06695,1.85703
4057.03725,1.85764
4056.00754,1.85860
4054.97784,1.85813
4053.94813,1.85724
4052.91843,1.85747
4051.88872,1.85738
4050.85902,1.85752
4049.82931,1.85834
4048.79961,1.85755
4047.76990,1.85660
4046.74020,1.85724
4045.71049,1.85797
4044.68079,1.85805
4043.65108,1.85824
4042.62138,1.85815
4041.59167,1.85777
4040.56197,1.85831
4039.53226,1.85848
4038.50256,1.85895
4037.47285,1.86194
4036.44315,1.86475
4035.41344,1.86440
4034.38374,1.86278
4033.35403,1.86352
4032.32433,1.86619
4031.29463,1.86685
4030.26492,1.86512
4029.23522,1.86356
4028.20551,1.86237
4027.17581,1.86146
4026.14610,1.86173
4025.11640,1.86303
4024.08669,1.86333
4023.05699,1.86105
4022.02728,1.85965
4020.99758,1.86207
4019.96787,1.86348
4018.93817,1.86221
4017.90846,1.86265
4016.87876,1.86394
4015.84905,1.86264
4014.81935,1.86029
4013.78964,1.86041
4012.75994,1.86123
4011.73023,1.86084
4010.70053,1.86017
4009.67082,1.85891
4008.64112,1.85845
4007.61141,1.85922
4006.58171,1.85968
4005.55200,1.86069
4004.52230,1.86205
4003.49259,1.86201
4002.46289,1.86001
4001.43318,1.85704
4000.40348,1.85633
3999.37377,1.85831
3998.34407,1.85996
3997.31436,1.86078
3996.28466,1.86115
3995.25495,1.86040
3994.22525,1.85860
3993.19554,1.85797
3992.16584,1.86031
3991.13613,1.86260
3990.10643,1.86189
3989.07672,1.85960
3988.04702,1.85789
3987.01731,1.85834
3985.98761,1.86000
3984.95791,1.86082
3983.92820,1.86075
3982.89850,1.85956
3981.86879,1.85762
3980.83909,1.85703
3979.80938,1.85682
3978.77968,1.85547
3977.74997,1.85572
3976.72027,1.85778
3975.69056,1.85889
3974.66086,1.85961
3973.63115,1.86031
3972.60145,1.85926
3971.57174,1.85798
3970.54204,1.85878
3969.51233,1.86033
3968.48263,1.86128
3967.45292,1.86075
3966.42322,1.85824
3965.39351,1.85613
3964.36381,1.85637
3963.33410,1.85769
3962.30440,1.85881
3961.27469,1.85983
3960.24499,1.86036
3959.21528,1.86004
3958.18558,1.85934
3957.15587,1.86045
3956.12617,1.86340
3955.09646,1.86401
3954.06676,1.86251
3953.03705,1.86226
3952.00735,1.86249
3950.97764,1.86172
3949.94794,1.86135
3948.91823,1.86115
3947.88853,1.85849
3946.85882,1.85714
3945.82912,1.85933
3944.79941,1.85980
3943.76971,1.85715
3942.74000,1.85600
3941.71030,1.85937
3940.68060,1.86354
3939.65089,1.86488
3938.62119,1.86396
3937.59148,1.86233
3936.56178,1.86084
3935.53207,1.86075
3934.50237,1.86281
3933.47266,1.86482
3932.44296,1.86287
3931.41325,1.85803
3930.38355,1.85548
3929.35384,1.85550
3928.32414,1.85548
3927.29443,1.85648
3926.26473,1.85912
3925.23502,1.85975
3924.20532,1.85801
3923.17561,1.85758
3922.14591,1.85742
3921.11620,1.85443
3920.08650,1.85021
3919.05679,1.84999
3918.02709,1.85216
3916.99738,1.85122
3915.96768,1.84834
3914.93797,1.84877
3913.90827,1.85130
3912.87856,1.85202
3911.84886,1.85067
3910.81915,1.84996
3909.78945,1.85147
3908.75974,1.85312
3907.73004,1.85358
3906.70033,1.85406
3905.67063,1.85565
3904.64092,1.85618
3903.61122,1.85360
3902.58151,1.85170
3901.55181,1.84915
3900.52210,1.84615
3899.49240,1.84581
3898.46269,1.84608
3897.43299,1.84584
3896.40329,1.84705
3895.37358,1.84919
3894.34388,1.84907
3893.31417,1.84733
3892.28447,1.84709
3891.25476,1.84720
3890.22506,1.84520
3889.19535,1.84301
3888.16565,1.84452
3887.13594,1.84860
3886.10624,1.84748
3885.07653,1.84182
3884.04683,1.84152
3883.01712,1.84488
3881.98742,1.85039
3880.95771,1.85443
3879.92801,1.84862
3878.89830,1.84132
3877.86860,1.83978
3876.83889,1.84264
3875.80919,1.84792
3874.77948,1.85105
3873.74978,1.84784
3872.72007,1.84469
3871.69037,1.84531
3870.66066,1.84711
3869.63096,1.84244
3868.60125,1.83695
3867.57155,1.83953
3866.54184,1.84626
3865.51214,1.84978
3864.48243,1.84427
3863.45273,1.83881
3862.42302,1.83821
3861.39332,1.83975
3860.36361,1.84157
3859.33391,1.84380
3858.30420,1.84566
3857.27450,1.84576
3856.24479,1.84637
3855.21509,1.84919
3854.18538,1.85130
3853.15568,1.84887
3852.12598,1.84559
3851.09627,1.84256
3850.06657,1.84030
3849.03686,1.83942
3848.00716,1.84068
3846.97745,1.84345
3845.94775,1.84675
3844.91804,1.84902
3843.88834,1.84681
3842.85863,1.84367
3841.82893,1.84515
3840.79922,1.84726
3839.76952,1.84651
3838.73981,1.84537
3837.71011,1.84390
3836.68040,1.84340
3835.65070,1.84453
3834.62099,1.84532
3833.59129,1.84749
3832.56158,1.85198
3831.53188,1.85189
3830.50217,1.84626
3829.47247,1.84500
3828.44276,1.84787
3827.41306,1.84794
3826.38335,1.84453
3825.35365,1.84236
3824.32394,1.84318
3823.29424,1.84747
3822.26453,1.85356
3821.23483,1.85344
3820.20512,1.84479
3819.17542,1.84225
3818.14571,1.84753
3817.11601,1.85680
3816.08630,1.85945
3815.05660,1.85190
3814.02689,1.84670
3812.99719,1.84527
3811.96748,1.84677
3810.93778,1.84945
3809.90807,1.85131
3808.87837,1.85385
3807.84866,1.85705
3806.81896,1.85477
3805.78926,1.85168
3804.75955,1.85424
3803.72985,1.85871
3802.70014,1.86223
3801.67044,1.86185
3800.64073,1.85660
3799.61103,1.85385
3798.58132,1.85453
3797.55162,1.85556
3796.52191,1.85399
3795.49221,1.85057
3794.46250,1.84778
3793.43280,1.84712
3792.40309,1.84884
3791.37339,1.85095
3790.34368,1.85111
3789.31398,1.85003
3788.28427,1.85091
3787.25457,1.85365
3786.22486,1.85525
3785.19516,1.85504
3784.16545,1.85475
3783.13575,1.85548
3782.10604,1.85607
3781.07634,1.85748
3780.04663,1.85899
3779.01693,1.85565
3777.98722,1.85266
3776.95752,1.85312
3775.92781,1.85391
3774.89811,1.85465
3773.86840,1.85503
3772.83870,1.85576
3771.80899,1.85938
3770.77929,1.86435
3769.74958,1.86359
3768.71988,1.85971
3767.69017,1.86006
3766.66047,1.86258
3765.63076,1.86350
3764.60106,1.86248
3763.57135,1.86093
3762.54165,1.86032
3761.51195,1.86210
3760.48224,1.86539
3759.45254,1.86557
3758.42283,1.86163
3757.39313,1.85953
3756.36342,1.86134
3755.33372,1.86352
3754.30401,1.86537
3753.27431,1.86864
3752.24460,1.86907
3751.21490,1.86639
3750.18519,1.86622
3749.15549,1.86423
3748.12578,1.86212
3747.09608,1.86196
3746.06637,1.86368
3745.03667,1.86753
3744.00696,1.86769
3742.97726,1.86806
3741.94755,1.86865
3740.91785,1.86814
3739.88814,1.86989
3738.85844,1.87576
3737.82873,1.88294
3736.79903,1.88961
3735.76932,1.89244
3734.73962,1.88357
3733.70991,1.87642
3732.68021,1.87747
3731.65050,1.87857
3730.62080,1.87686
3729.59109,1.87648
3728.56139,1.87835
3727.53168,1.88091
3726.50198,1.88258
3725.47227,1.88136
3724.44257,1.87847
3723.41286,1.87716
3722.38316,1.87898
3721.35345,1.88400
3720.32375,1.88798
3719.29404,1.88798
3718.26434,1.88654
3717.23464,1.88667
3716.20493,1.88793
3715.17523,1.89052
3714.14552,1.89451
3713.11582,1.89959
3712.08611,1.90238
3711.05641,1.89994
3710.02670,1.89881
3708.99700,1.90131
3707.96729,1.90483
3706.93759,1.90718
3705.90788,1.90843
3704.87818,1.91013
3703.84847,1.91406
3702.81877,1.91948
3701.78906,1.92297
3700.75936,1.92347
3699.72965,1.92456
3698.69995,1.92735
3697.67024,1.93028
3696.64054,1.93312
3695.61083,1.93560
3694.58113,1.93658
3693.55142,1.93872
3692.52172,1.94552
3691.49201,1.95269
3690.46231,1.95299
3689.43260,1.95174
3688.40290,1.95084
3687.37319,1.95099
3686.34349,1.95510
3685.31378,1.96191
3684.28408,1.96740
3683.25437,1.97007
3682.22467,1.97305
3681.19496,1.97703
3680.16526,1.98085
3679.13555,1.98450
3678.10585,1.98976
3677.07614,1.99831
3676.04644,2.00590
3675.01673,2.00258
3673.98703,2.00265
3672.95733,2.00752
3671.92762,2.01363
3670.89792,2.01920
3669.86821,2.01835
3668.83851,2.01635
3667.80880,2.01848
3666.77910,2.02236
3665.74939,2.02728
3664.71969,2.03374
3663.68998,2.04048
3662.66028,2.04531
3661.63057,2.04805
3660.60087,2.04946
3659.57116,2.05174
3658.54146,2.05564
3657.51175,2.05847
3656.48205,2.06108
3655.45234,2.06479
3654.42264,2.06926
3653.39293,2.07689
3652.36323,2.08781
3651.33352,2.09710
3650.30382,2.09536
3649.27411,2.08836
3648.24441,2.08693
3647.21470,2.08770
3646.18500,2.09075
3645.15529,2.09748
3644.12559,2.10672
3643.09588,2.11223
3642.06618,2.11204
3641.03647,2.11433
3640.00677,2.11990
3638.97706,2.12311
3637.94736,2.12381
3636.91765,2.12459
3635.88795,2.12730
3634.85824,2.13244
3633.82854,2.13476
3632.79883,2.13443
3631.76913,2.13858
3630.73942,2.14457
3629.70972,2.14552
3628.68001,2.13763
3627.65031,2.13449
3626.62061,2.14142
3625.59090,2.15213
3624.56120,2.15995
3623.53149,2.16426
3622.50179,2.16784
3621.47208,2.17237
3620.44238,2.17676
3619.41267,2.17716
3618.38297,2.17188
3617.35326,2.16444
3616.32356,2.16232
3615.29385,2.16868
3614.26415,2.17417
3613.23444,2.17290
3612.20474,2.17587
3611.17503,2.18125
3610.14533,2.18233
3609.11562,2.18414
3608.08592,2.18923
3607.05621,2.19145
3606.02651,2.18802
3604.99680,2.18358
3603.96710,2.18297
3602.93739,2.18668
3601.90769,2.19193
3600.87798,2.19681
3599.84828,2.20063
3598.81857,2.20187
3597.78887,2.20022
3596.75916,2.19795
3595.72946,2.19767
3594.69975,2.20271
3593.67005,2.20713
3592.64034,2.20383
3591.61064,2.20126
3590.58093,2.20319
3589.55123,2.20420
3588.52152,2.20228
3587.49182,2.19932
3586.46211,2.19771
3585.43241,2.19934
3584.40270,2.20474
3583.37300,2.20939
3582.34330,2.20825
3581.31359,2.20470
3580.28389,2.20372
3579.25418,2.20486
3578.22448,2.20547
3577.19477,2.20600
3576.16507,2.20784
3575.13536,2.21007
3574.10566,2.21021
3573.07595,2.20849
3572.04625,2.20688
3571.01654,2.20641
3569.98684,2.20774
3568.95713,2.21006
3567.92743,2.21326
3566.89772,2.21399
3565.86802,2.20900
3564.83831,2.20571
3563.80861,2.20684
3562.77890,2.21184
3561.74920,2.21730
3560.71949,2.21510
3559.68979,2.20789
3558.66008,2.20705
3557.63038,2.21287
3556.60067,2.21741
3555.57097,2.21778
3554.54126,2.21606
3553.51156,2.21509
3552.48185,2.21598
3551.45215,2.21535
3550.42244,2.21570
3549.39274,2.21948
3548.36303,2.22038
3547.33333,2.21694
3546.30362,2.21482
3545.27392,2.21256
3544.24421,2.20875
3543.21451,2.20997
3542.18480,2.21809
3541.15510,2.22590
3540.12539,2.22650
3539.09569,2.22054
3538.06599,2.21448
3537.03628,2.21171
3536.00658,2.21089
3534.97687,2.21290
3533.94717,2.21885
3532.91746,2.22412
3531.88776,2.22643
3530.85805,2.22735
3529.82835,2.22321
3528.79864,2.21509
3527.76894,2.21204
3526.73923,2.21429
3525.70953,2.21615
3524.67982,2.21927
3523.65012,2.22412
3522.62041,2.22275
3521.59071,2.21738
3520.56100,2.21760
3519.53130,2.22085
3518.50159,2.22234
3517.47189,2.22330
3516.44218,2.22342
3515.41248,2.22243
3514.38277,2.22249
3513.35307,2.22437
3512.32336,2.22694
3511.29366,2.22660
3510.26395,2.22088
3509.23425,2.21517
3508.20454,2.21599
3507.17484,2.21833
3506.14513,2.21679
3505.11543,2.21642
3504.08572,2.21816
3503.05602,2.21782
3502.02631,2.21792
3500.99661,2.21910
3499.96690,2.22123
3498.93720,2.22405
3497.90749,2.22303
3496.87779,2.21997
3495.84808,2.21899
3494.81838,2.21770
3493.78868,2.21618
3492.75897,2.21686
3491.72927,2.21985
3490.69956,2.22413
3489.66986,2.22436
3488.64015,2.21853
3487.61045,2.21544
3486.58074,2.21851
3485.55104,2.22082
3484.52133,2.22033
3483.49163,2.21921
3482.46192,2.21697
3481.43222,2.21513
3480.40251,2.21403
3479.37281,2.21219
3478.34310,2.21009
3477.31340,2.20915
3476.28369,2.21178
3475.25399,2.21442
3474.22428,2.21571
3473.19458,2.21750
3472.16487,2.21579
3471.13517,2.21491
3470.10546,2.21919
3469.07576,2.22342
3468.04605,2.22447
3467.01635,2.22085
3465.98664,2.21639
3464.95694,2.21904
3463.92723,2.22688
3462.89753,2.22947
3461.86782,2.22405
3460.83812,2.22032
3459.80841,2.22144
3458.77871,2.21984
3457.74900,2.21578
3456.71930,2.21682
3455.68959,2.21936
3454.65989,2.21868
3453.63018,2.21729
3452.60048,2.21507
3451.57077,2.21232
3450.54107,2.21024
3449.51136,2.21110
3448.48166,2.21550
3447.45196,2.21788
3446.42225,2.21544
3445.39255,2.21241
3444.36284,2.21281
3443.33314,2.21369
3442.30343,2.21238
3441.27373,2.21311
3440.24402,2.21497
3439.21432,2.21358
3438.18461,2.20933
3437.15491,2.20642
3436.12520,2.20716
3435.09550,2.20864
3434.06579,2.20994
3433.03609,2.21154
3432.00638,2.21170
3430.97668,2.21053
3429.94697,2.20963
3428.91727,2.20945
3427.88756,2.20888
3426.85786,2.20715
3425.82815,2.20603
3424.79845,2.20757
3423.76874,2.20994
3422.73904,2.21112
3421.70933,2.21264
3420.67963,2.21514
3419.64992,2.21557
3418.62022,2.21226
3417.59051,2.20917
3416.56081,2.20920
3415.53110,2.20977
3414.50140,2.20841
3413.47169,2.20577
3412.44199,2.20374
3411.41228,2.20534
3410.38258,2.20698
3409.35287,2.20194
3408.32317,2.19845
3407.29346,2.20202
3406.26376,2.20121
3405.23405,2.19299
3404.20435,2.18772
3403.17465,2.18946
3402.14494,2.19314
3401.11524,2.19423
3400.08553,2.19352
3399.05583,2.19328
3398.02612,2.19211
3396.99642,2.18875
3395.96671,2.18689
3394.93701,2.18892
3393.90730,2.19051
3392.87760,2.18983
3391.84789,2.18980
3390.81819,2.18892
3389.78848,2.18622
3388.75878,2.18393
3387.72907,2.18070
3386.69937,2.17728
3385.66966,2.17844
3384.63996,2.18092
3383.61025,2.17966
3382.58055,2.17904
3381.55084,2.18035
3380.52114,2.17914
3379.49143,2.17636
3378.46173,2.17544
3377.43202,2.17584
3376.40232,2.17580
3375.37261,2.17534
3374.34291,2.17422
3373.31320,2.17163
3372.28350,2.16869
3371.25379,2.16782
3370.22409,2.16929
3369.19438,2.16960
3368.16468,2.16568
3367.13497,2.15958
3366.10527,2.15780
3365.07556,2.16207
3364.04586,2.16722
3363.01615,2.16903
3361.98645,2.16618
3360.95674,2.16311
3359.92704,2.16308
3358.89734,2.16164
3357.86763,2.15833
3356.83793,2.15788
3355.80822,2.16022
3354.77852,2.16227
3353.74881,2.16261
3352.71911,2.16282
3351.68940,2.16440
3350.65970,2.16456
3349.62999,2.16356
3348.60029,2.16449
3347.57058,2.16642
3346.54088,2.16648
3345.51117,2.16397
3344.48147,2.16173
3343.45176,2.16132
3342.42206,2.16227
3341.39235,2.16327
3340.36265,2.16201
3339.33294,2.16041
3338.30324,2.16041
3337.27353,2.15905
3336.24383,2.15597
3335.21412,2.15554
3334.18442,2.15831
3333.15471,2.15989
3332.12501,2.16035
3331.09530,2.16180
3330.06560,2.16254
3329.03589,2.16175
3328.00619,2.16132
3326.97648,2.16253
3325.94678,2.16142
3324.91707,2.15511
3323.88737,2.14974
3322.85766,2.14904
3321.82796,2.14976
3320.79825,2.15084
3319.76855,2.15432
3318.73884,2.15831
3317.70914,2.15775
3316.67943,2.15474
3315.64973,2.15421
3314.62003,2.15537
3313.59032,2.15572
3312.56062,2.15488
3311.53091,2.15376
3310.50121,2.15268
3309.47150,2.15348
3308.44180,2.15455
3307.41209,2.15202
3306.38239,2.14933
3305.35268,2.14992
3304.32298,2.15215
3303.29327,2.15527
3302.26357,2.15667
3301.23386,2.15450
3300.20416,2.15287
3299.17445,2.15230
3298.14475,2.14980
3297.11504,2.14905
3296.08534,2.15297
3295.05563,2.15712
3294.02593,2.15879
3292.99622,2.15882
3291.96652,2.15879
3290.93681,2.15919
3289.90711,2.15815
3288.87740,2.15569
3287.84770,2.15448
3286.81799,2.15481
3285.78829,2.15492
3284.75858,2.15404
3283.72888,2.15430
3282.69917,2.15689
3281.66947,2.15715
3280.63976,2.15382
3279.61006,2.15141
3278.58035,2.15136
3277.55065,2.15289
3276.52094,2.15558
3275.49124,2.15846
3274.46153,2.15926
3273.43183,2.15697
3272.40212,2.15386
3271.37242,2.15245
3270.34271,2.15317
3269.31301,2.15426
3268.28331,2.15498
3267.25360,2.15675
3266.22390,2.15696
3265.19419,2.15340
3264.16449,2.15120
3263.13478,2.15419
3262.10508,2.15763
3261.07537,2.15760
3260.04567,2.15726
3259.01596,2.15609
3257.98626,2.15338
3256.95655,2.15326
3255.92685,2.15692
3254.89714,2.16100
3253.86744,2.16007
3252.83773,2.15513
3251.80803,2.15277
3250.77832,2.15294
3249.74862,2.15167
3248.71891,2.15049
3247.68921,2.15301
3246.65950,2.15640
3245.62980,2.15650
3244.60009,2.15442
3243.57039,2.15198
3242.54068,2.15001
3241.51098,2.14951
3240.48127,2.15177
3239.45157,2.15515
3238.42186,2.15585
3237.39216,2.15414
3236.36245,2.15257
3235.33275,2.15194
3234.30304,2.15182
3233.27334,2.15049
3232.24363,2.14767
3231.21393,2.14635
3230.18422,2.14673
3229.15452,2.14651
3228.12481,2.14614
3227.09511,2.14723
3226.06540,2.14822
3225.03570,2.14768
3224.00600,2.14740
3222.97629,2.14779
3221.94659,2.14891
3220.91688,2.14977
3219.88718,2.14802
3218.85747,2.14547
3217.82777,2.14620
3216.79806,2.15001
3215.76836,2.15386
3214.73865,2.15471
3213.70895,2.15303
3212.67924,2.15401
3211.64954,2.15628
3210.61983,2.15506
3209.59013,2.15196
3208.56042,2.15043
3207.53072,2.15097
3206.50101,2.15101
3205.47131,2.15010
3204.44160,2.15153
3203.41190,2.15544
3202.38219,2.15804
3201.35249,2.15773
3200.32278,2.15519
3199.29308,2.15240
3198.26337,2.15203
3197.23367,2.15225
3196.20396,2.15066
3195.17426,2.14987
3194.14455,2.15088
3193.11485,2.15121
3192.08514,2.15097
3191.05544,2.15220
3190.02573,2.15352
3188.99603,2.15205
3187.96632,2.14955
3186.93662,2.14946
3185.90691,2.15077
3184.87721,2.15036
3183.84750,2.14949
3182.81780,2.15068
3181.78809,2.15092
3180.75839,2.14865
3179.72869,2.14919
3178.69898,2.15306
3177.66928,2.15315
3176.63957,2.15119
3175.60987,2.15279
3174.58016,2.15415
3173.55046,2.15198
3172.52075,2.15001
3171.49105,2.15019
3170.46134,2.14944
3169.43164,2.14682
3168.40193,2.14598
3167.37223,2.14783
3166.34252,2.14907
3165.31282,2.14868
3164.28311,2.14823
3163.25341,2.14761
3162.22370,2.14676
3161.19400,2.14599
3160.16429,2.14427
3159.13459,2.14381
3158.10488,2.14618
3157.07518,2.14810
3156.04547,2.14735
3155.01577,2.14452
3153.98606,2.14337
3152.95636,2.14623
3151.92665,2.14907
3150.89695,2.14900
3149.86724,2.14859
3148.83754,2.14998
3147.80783,2.15108
3146.77813,2.14965
3145.74842,2.14756
3144.71872,2.14689
3143.68901,2.14736
3142.65931,2.14749
3141.62960,2.14690
3140.59990,2.14718
3139.57019,2.14832
3138.54049,2.14919
3137.51078,2.14992
3136.48108,2.15170
3135.45138,2.15369
3134.42167,2.15397
3133.39197,2.15199
3132.36226,2.14865
3131.33256,2.14774
3130.30285,2.14924
3129.27315,2.14891
3128.24344,2.14778
3127.21374,2.14937
3126.18403,2.15111
3125.15433,2.14967
3124.12462,2.14785
3123.09492,2.14785
3122.06521,2.14876
3121.03551,2.15094
3120.00580,2.15261
3118.97610,2.15105
3117.94639,2.14902
3116.91669,2.14807
3115.88698,2.14664
3114.85728,2.14617
3113.82757,2.14604
3112.79787,2.14421
3111.76816,2.14346
3110.73846,2.14513
3109.70875,2.14664
3108.67905,2.14718
3107.64934,2.14778
3106.61964,2.14935
3105.58993,2.15028
3104.56023,2.15003
3103.53052,2.15056
3102.50082,2.15053
3101.47111,2.14808
3100.44141,2.14455
3099.41170,2.14217
3098.38200,2.14238
3097.35229,2.14492
3096.32259,2.14561
3095.29288,2.14375
3094.26318,2.14414
3093.23347,2.14699
3092.20377,2.14781
3091.17406,2.14558
3090.14436,2.14445
3089.11466,2.14607
3088.08495,2.14843
3087.05525,2.15077
3086.02554,2.15126
3084.99584,2.14856
3083.96613,2.14691
3082.93643,2.14804
3081.90672,2.14835
3080.87702,2.14749
3079.84731,2.14756
3078.81761,2.14867
3077.78790,2.14887
3076.75820,2.14798
3075.72849,2.14865
3074.69879,2.14920
3073.66908,2.14551
3072.63938,2.14098
3071.60967,2.14025
3070.57997,2.14179
3069.55026,2.14300
3068.52056,2.14320
3067.49085,2.14306
3066.46115,2.14385
3065.43144,2.14456
3064.40174,2.14421
3063.37203,2.14512
3062.34233,2.14693
3061.31262,2.14811
3060.28292,2.14939
3059.25321,2.15082
3058.22351,2.15064
3057.19380,2.14837
3056.16410,2.14734
3055.13439,2.14763
3054.10469,2.14650
3053.07498,2.14510
3052.04528,2.14593
3051.01557,2.14771
3049.98587,2.14773
3048.95616,2.14655
3047.92646,2.14503
3046.89675,2.14502
3045.86705,2.14824
3044.83735,2.15103
3043.80764,2.15079
3042.77794,2.14913
3041.74823,2.14763
3040.71853,2.14671
3039.68882,2.14571
3038.65912,2.14549
3037.62941,2.14673
3036.59971,2.14694
3035.57000,2.14590
3034.54030,2.14594
3033.51059,2.14689
3032.48089,2.14847
3031.45118,2.14990
3030.42148,2.14999
3029.39177,2.15016
3028.36207,2.15078
3027.33236,2.15133
3026.30266,2.15177
3025.27295,2.15231
3024.24325,2.15200
3023.21354,2.14959
3022.18384,2.14750
3021.15413,2.14819
3020.12443,2.15157
3019.09472,2.15462
3018.06502,2.15454
3017.03531,2.15353
3016.00561,2.15286
3014.97590,2.15130
3013.94620,2.14984
3012.91649,2.14862
3011.88679,2.14815
3010.85708,2.15114
3009.82738,2.15483
3008.79767,2.15379
3007.76797,2.15230
3006.73826,2.15553
3005.70856,2.15762
3004.67885,2.15527
3003.64915,2.15409
3002.61944,2.15576
3001.58974,2.15780
3000.56004,2.15908
2999.53033,2.15935
2998.50063,2.15864
2997.47092,2.15757
2996.44122,2.15784
2995.41151,2.15869
2994.38181,2.15974
2993.35210,2.16231
2992.32240,2.16484
2991.29269,2.16595
2990.26299,2.16503
2989.23328,2.16254
2988.20358,2.16033
2987.17387,2.16138
2986.14417,2.16602
2985.11446,2.16811
2984.08476,2.16689
2983.05505,2.16740
2982.02535,2.16848
2980.99564,2.16781
2979.96594,2.16724
2978.93623,2.16814
2977.90653,2.17006
2976.87682,2.17192
2975.84712,2.17363
2974.81741,2.17460
2973.78771,2.17422
2972.75800,2.17464
2971.72830,2.17508
2970.69859,2.17407
2969.66889,2.17371
2968.63918,2.17479
2967.60948,2.17679
2966.57977,2.17911
2965.55007,2.18052
2964.52036,2.18114
2963.49066,2.18222
2962.46095,2.18327
2961.43125,2.18213
2960.40154,2.17911
2959.37184,2.17615
2958.34213,2.17442
2957.31243,2.17496
2956.28273,2.17630
2955.25302,2.17577
2954.22332,2.17447
2953.19361,2.17584
2952.16391,2.17944
2951.13420,2.18163
2950.10450,2.18085
2949.07479,2.17824
2948.04509,2.17561
2947.01538,2.17324
2945.98568,2.17163
2944.95597,2.17163
2943.92627,2.17243
2942.89656,2.17211
2941.86686,2.17167
2940.83715,2.17483
2939.80745,2.17823
2938.77774,2.17499
2937.74804,2.16907
2936.71833,2.16861
2935.68863,2.17161
2934.65892,2.17202
2933.62922,2.17069
2932.59951,2.16934
2931.56981,2.16629
2930.54010,2.16250
2929.51040,2.15963
2928.48069,2.15717
2927.45099,2.15433
2926.42128,2.14958
2925.39158,2.14349
2924.36187,2.13729
2923.33217,2.13099
2922.30246,2.12513
2921.27276,2.11840
2920.24305,2.10793
2919.21335,2.09286
2918.18364,2.07674
2917.15394,2.06277
2916.12423,2.05056
2915.09453,2.04211
2914.06482,2.03999
2913.03512,2.04183
2912.00541,2.04540
2910.97571,2.05139
2909.94601,2.05771
2908.91630,2.06175
2907.88660,2.06529
2906.85689,2.06964
2905.82719,2.07383
2904.79748,2.07773
2903.76778,2.08099
2902.73807,2.08281
2901.70837,2.08370
2900.67866,2.08382
2899.64896,2.08263
2898.61925,2.08253
2897.58955,2.08590
2896.55984,2.08983
2895.53014,2.09101
2894.50043,2.09046
2893.47073,2.08997
2892.44102,2.08994
2891.41132,2.09127
2890.38161,2.09404
2889.35191,2.09686
2888.32220,2.09936
2887.29250,2.10074
2886.26279,2.10019
2885.23309,2.09898
2884.20338,2.09930
2883.17368,2.10179
2882.14397,2.10422
2881.11427,2.10515
2880.08456,2.10496
2879.05486,2.10419
2878.02515,2.10518
2876.99545,2.10812
2875.96574,2.11046
2874.93604,2.11134
2873.90633,2.11049
2872.87663,2.10999
2871.84692,2.11132
2870.81722,2.11224
2869.78751,2.11234
2868.75781,2.11280
2867.72810,2.11365
2866.69840,2.11382
2865.66870,2.11448
2864.63899,2.11771
2863.60929,2.12019
2862.57958,2.11891
2861.54988,2.11611
2860.52017,2.11411
2859.49047,2.11399
2858.46076,2.11549
2857.43106,2.11583
2856.40135,2.11481
2855.37165,2.11471
2854.34194,2.11313
2853.31224,2.10714
2852.28253,2.09959
2851.25283,2.09221
2850.22312,2.08371
2849.19342,2.07379
2848.16371,2.06320
2847.13401,2.05604
2846.10430,2.05462
2845.07460,2.05483
2844.04489,2.05413
2843.01519,2.05477
2841.98548,2.05782
2840.95578,2.06137
2839.92607,2.06467
2838.89637,2.06755
2837.86666,2.07012
2836.83696,2.07343
2835.80725,2.07606
2834.77755,2.07647
2833.74784,2.07516
2832.71814,2.07453
2831.68843,2.07606
2830.65873,2.07802
2829.62902,2.07943
2828.59932,2.07988
2827.56961,2.08045
2826.53991,2.08179
2825.51020,2.08267
2824.48050,2.08331
2823.45079,2.08431
2822.42109,2.08639
2821.39139,2.08804
2820.36168,2.08719
2819.33198,2.08588
2818.30227,2.08691
2817.27257,2.08911
2816.24286,2.09015
2815.21316,2.09006
2814.18345,2.08898
2813.15375,2.08693
2812.12404,2.08526
2811.09434,2.08567
2810.06463,2.08793
2809.03493,2.08963
2808.00522,2.08852
2806.97552,2.08601
2805.94581,2.08473
2804.91611,2.08532
2803.88640,2.08682
2802.85670,2.08670
2801.82699,2.08580
2800.79729,2.08706
2799.76758,2.08901
2798.73788,2.08886
2797.70817,2.08719
2796.67847,2.08670
2795.64876,2.08797
2794.61906,2.08831
2793.58935,2.08692
2792.55965,2.08566
2791.52994,2.08558
2790.50024,2.08665
2789.47053,2.08727
2788.44083,2.08641
2787.41112,2.08519
2786.38142,2.08436
2785.35171,2.08444
2784.32201,2.08507
2783.29230,2.08458
2782.26260,2.08428
2781.23289,2.08534
2780.20319,2.08598
2779.17348,2.08661
2778.14378,2.08759
2777.11408,2.08716
2776.08437,2.08528
2775.05467,2.08367
2774.02496,2.08279
2772.99526,2.08245
2771.96555,2.08274
2770.93585,2.08391
2769.90614,2.08617
2768.87644,2.08715
2767.84673,2.08577
2766.81703,2.08507
2765.78732,2.08651
2764.75762,2.08742
2763.72791,2.08680
2762.69821,2.08643
2761.66850,2.08661
2760.63880,2.08708
2759.60909,2.08673
2758.57939,2.08497
2757.54968,2.08376
2756.51998,2.08375
2755.49027,2.08352
2754.46057,2.08292
2753.43086,2.08253
2752.40116,2.08230
2751.37145,2.08219
2750.34175,2.08287
2749.31204,2.08402
2748.28234,2.08375
2747.25263,2.08277
2746.22293,2.08318
2745.19322,2.08366
2744.16352,2.08371
2743.13381,2.08453
2742.10411,2.08517
2741.07440,2.08488
2740.04470,2.08420
2739.01499,2.08387
2737.98529,2.08455
2736.95558,2.08554
2735.92588,2.08549
2734.89617,2.08520
2733.86647,2.08567
2732.83676,2.08595
2731.80706,2.08579
2730.77736,2.08479
2729.74765,2.08332
2728.71795,2.08286
2727.68824,2.08346
2726.65854,2.08429
2725.62883,2.08454
2724.59913,2.08447
2723.56942,2.08513
2722.53972,2.08663
2721.51001,2.08698
2720.48031,2.08523
2719.45060,2.08275
2718.42090,2.08035
2717.39119,2.07956
2716.36149,2.08163
2715.33178,2.08366
2714.30208,2.08342
2713.27237,2.08327
2712.24267,2.08368
2711.21296,2.08302
2710.18326,2.08212
2709.15355,2.08227
2708.12385,2.08240
2707.09414,2.08099
2706.06444,2.07930
2705.03473,2.08037
2704.00503,2.08284
2702.97532,2.08235
2701.94562,2.08049
2700.91591,2.07975
2699.88621,2.07935
2698.85650,2.07945
2697.82680,2.07998
2696.79709,2.08000
2695.76739,2.08016
2694.73768,2.08147
2693.70798,2.08194
2692.67827,2.08022
2691.64857,2.07879
2690.61886,2.08011
2689.58916,2.08231
2688.55945,2.08199
2687.52975,2.08071
2686.50005,2.08119
2685.47034,2.08143
2684.44064,2.07983
2683.41093,2.07889
2682.38123,2.08038
2681.35152,2.08291
2680.32182,2.08369
2679.29211,2.08174
2678.26241,2.07938
2677.23270,2.07924
2676.20300,2.08042
2675.17329,2.08089
2674.14359,2.08033
2673.11388,2.07900
2672.08418,2.07792
2671.05447,2.07844
2670.02477,2.08072
2668.99506,2.08264
2667.96536,2.08249
2666.93565,2.08138
2665.90595,2.08109
2664.87624,2.08154
2663.84654,2.08071
2662.81683,2.07849
2661.78713,2.07792
2660.75742,2.07988
2659.72772,2.08210
2658.69801,2.08246
2657.66831,2.08052
2656.63860,2.07786
2655.60890,2.07568
2654.57919,2.07521
2653.54949,2.07655
2652.51978,2.07669
2651.49008,2.07529
2650.46037,2.07544
2649.43067,2.07758
2648.40096,2.07864
2647.37126,2.07687
2646.34155,2.07472
2645.31185,2.07495
2644.28214,2.07651
2643.25244,2.07663
2642.22274,2.07530
2641.19303,2.07486
2640.16333,2.07595
2639.13362,2.07687
2638.10392,2.07740
2637.07421,2.07815
2636.04451,2.07811
2635.01480,2.07746
2633.98510,2.07740
2632.95539,2.07721
2631.92569,2.07592
2630.89598,2.07505
2629.86628,2.07568
2628.83657,2.07599
2627.80687,2.07664
2626.77716,2.07822
2625.74746,2.07769
2624.71775,2.07549
2623.68805,2.07454
2622.65834,2.07479
2621.62864,2.07407
2620.59893,2.07238
2619.56923,2.07243
2618.53952,2.07364
2617.50982,2.07317
2616.48011,2.07160
2615.45041,2.07109
2614.42070,2.07234
2613.39100,2.07354
2612.36129,2.07271
2611.33159,2.07155
2610.30188,2.07220
2609.27218,2.07383
2608.24247,2.07534
2607.21277,2.07646
2606.18306,2.07663
2605.15336,2.07632
2604.12365,2.07609
2603.09395,2.07522
2602.06424,2.07477
2601.03454,2.07580
2600.00483,2.07655
2598.97513,2.07576
2597.94543,2.07468
2596.91572,2.07458
2595.88602,2.07529
2594.85631,2.07571
2593.82661,2.07510
2592.79690,2.07408
2591.76720,2.07287
2590.73749,2.07219
2589.70779,2.07340
2588.67808,2.07532
2587.64838,2.07569
2586.61867,2.07486
2585.58897,2.07468
2584.55926,2.07401
2583.52956,2.07174
2582.49985,2.07041
2581.47015,2.07132
2580.44044,2.07272
2579.41074,2.07299
2578.38103,2.07245
2577.35133,2.07194
2576.32162,2.07168
2575.29192,2.07168
2574.26221,2.07188
2573.23251,2.07175
2572.20280,2.07143
2571.17310,2.07183
2570.14339,2.07298
2569.11369,2.07360
2568.08398,2.07290
2567.05428,2.07230
2566.02457,2.07287
2564.99487,2.07369
2563.96516,2.07440
2562.93546,2.07408
2561.90575,2.07212
2560.87605,2.07116
2559.84634,2.07192
2558.81664,2.07249
2557.78693,2.07248
2556.75723,2.07284
2555.72752,2.07468
2554.69782,2.07687
2553.66811,2.07700
2552.63841,2.07535
2551.60871,2.07369
2550.57900,2.07315
2549.54930,2.07389
2548.51959,2.07436
2547.48989,2.07447
2546.46018,2.07516
2545.43048,2.07503
2544.40077,2.07383
2543.37107,2.07271
2542.34136,2.07136
2541.31166,2.07025
2540.28195,2.07112
2539.25225,2.07381
2538.22254,2.07616
2537.19284,2.07705
2536.16313,2.07678
2535.13343,2.07648
2534.10372,2.07765
2533.07402,2.08011
2532.04431,2.08185
2531.01461,2.08151
2529.98490,2.07962
2528.95520,2.07831
2527.92549,2.07915
2526.89579,2.08074
2525.86608,2.08136
2524.83638,2.08125
2523.80667,2.08154
2522.77697,2.08295
2521.74726,2.08503
2520.71756,2.08642
2519.68785,2.08597
2518.65815,2.08518
2517.62844,2.08483
2516.59874,2.08352
2515.56903,2.08296
2514.53933,2.08474
2513.50962,2.08708
2512.47992,2.08792
2511.45021,2.08669
2510.42051,2.08619
2509.39080,2.08774
2508.36110,2.08747
2507.33140,2.08460
2506.30169,2.08362
2505.27199,2.08531
2504.24228,2.08534
2503.21258,2.08334
2502.18287,2.08285
2501.15317,2.08377
2500.12346,2.08387
2499.09376,2.08236
2498.06405,2.07970
2497.03435,2.07800
2496.00464,2.07824
2494.97494,2.07862
2493.94523,2.07871
2492.91553,2.07805
2491.88582,2.07623
2490.85612,2.07504
2489.82641,2.07459
2488.79671,2.07319
2487.76700,2.07083
2486.73730,2.06971
2485.70759,2.06945
2484.67789,2.06803
2483.64818,2.06758
2482.61848,2.06897
2481.58877,2.06907
2480.55907,2.06850
2479.52936,2.07019
2478.49966,2.07178
2477.46995,2.06997
2476.44025,2.06651
2475.41054,2.06443
2474.38084,2.06424
2473.35113,2.06450
2472.32143,2.06433
2471.29172,2.06443
2470.26202,2.06480
2469.23231,2.06397
2468.20261,2.06296
2467.17290,2.06303
2466.14320,2.06189
2465.11349,2.06084
2464.08379,2.06327
2463.05409,2.06542
2462.02438,2.06366
2460.99468,2.06236
2459.96497,2.06372
2458.93527,2.06404
2457.90556,2.06273
2456.87586,2.06113
2455.84615,2.05903
2454.81645,2.05830
2453.78674,2.06037
2452.75704,2.06272
2451.72733,2.06372
2450.69763,2.06355
2449.66792,2.06253
2448.63822,2.06180
2447.60851,2.06151
2446.57881,2.06146
2445.54910,2.06142
2444.51940,2.06025
2443.48969,2.05850
2442.45999,2.05821
2441.43028,2.05995
2440.40058,2.06156
2439.37087,2.06044
2438.34117,2.05804
2437.31146,2.05735
2436.28176,2.05799
2435.25205,2.05837
2434.22235,2.05832
2433.19264,2.05840
2432.16294,2.05890
2431.13323,2.05981
2430.10353,2.06071
2429.07382,2.06085
2428.04412,2.06052
2427.01441,2.06049
2425.98471,2.06031
2424.95500,2.05935
2423.92530,2.05769
2422.89559,2.05634
2421.86589,2.05663
2420.83618,2.05834
2419.80648,2.05997
2418.77678,2.06027
2417.74707,2.05888
2416.71737,2.05669
2415.68766,2.05595
2414.65796,2.05627
2413.62825,2.05552
2412.59855,2.05429
2411.56884,2.05369
2410.53914,2.05405
2409.50943,2.05502
2408.47973,2.05591
2407.45002,2.05635
2406.42032,2.05633
2405.39061,2.05570
2404.36091,2.05416
2403.33120,2.05253
2402.30150,2.05265
2401.27179,2.05415
2400.24209,2.05471
2399.21238,2.05475
2398.18268,2.05463
2397.15297,2.05325
2396.12327,2.05226
2395.09356,2.05250
2394.06386,2.05285
2393.03415,2.05330
2392.00445,2.05298
2390.97474,2.05144
2389.94504,2.05047
2388.91533,2.05180
2387.88563,2.05413
2386.85592,2.05402
2385.82622,2.05124
2384.79651,2.04842
2383.76681,2.04740
2382.73710,2.04884
2381.70740,2.05098
2380.67769,2.05075
2379.64799,2.04988
2378.61828,2.05041
2377.58858,2.04942
2376.55887,2.04748
2375.52917,2.04795
2374.49946,2.04940
2373.46976,2.04920
2372.44006,2.04848
2371.41035,2.04973
2370.38065,2.05226
2369.35094,2.05283
2368.32124,2.05328
2367.29153,2.05694
2366.26183,2.05899
2365.23212,2.05558
2364.20242,2.04888
2363.17271,2.04490
2362.14301,2.04529
2361.11330,2.04412
2360.08360,2.04263
2359.05389,2.04355
2358.02419,2.04533
2356.99448,2.04617
2355.96478,2.04501
2354.93507,2.04518
2353.90537,2.04668
2352.87566,2.04632
2351.84596,2.04485
2350.81625,2.04373
2349.78655,2.04312
2348.75684,2.04392
2347.72714,2.04700
2346.69743,2.05061
2345.66773,2.05102
2344.63802,2.04911
2343.60832,2.04745
2342.57861,2.04533
2341.54891,2.04403
2340.51920,2.04485
2339.48950,2.04618
2338.45979,2.04580
2337.43009,2.04381
2336.40038,2.04406
2335.37068,2.04721
2334.34097,2.04867
2333.31127,2.04607
2332.28156,2.04299
2331.25186,2.04223
2330.22215,2.04211
2329.19245,2.04152
2328.16275,2.04172
2327.13304,2.04309
2326.10334,2.04353
2325.07363,2.04164
2324.04393,2.03921
2323.01422,2.03925
2321.98452,2.04126
2320.95481,2.04192
2319.92511,2.04066
2318.89540,2.03925
2317.86570,2.03929
2316.83599,2.04070
2315.80629,2.04060
2314.77658,2.03786
2313.74688,2.03580
2312.71717,2.03623
2311.68747,2.03784
2310.65776,2.03904
2309.62806,2.03801
2308.59835,2.03532
2307.56865,2.03432
2306.53894,2.03532
2305.50924,2.03537
2304.47953,2.03392
2303.44983,2.03342
2302.42012,2.03451
2301.39042,2.03511
2300.36071,2.03453
2299.33101,2.03349
2298.30130,2.03210
2297.27160,2.03129
2296.24189,2.03233
2295.21219,2.03434
2294.18248,2.03508
2293.15278,2.03430
2292.12307,2.03326
2291.09337,2.03237
2290.06366,2.03203
2289.03396,2.03217
2288.00425,2.03180
2286.97455,2.03128
2285.94484,2.03207
2284.91514,2.03395
2283.88544,2.03423
2282.85573,2.03214
2281.82603,2.03117
2280.79632,2.03263
2279.76662,2.03316
2278.73691,2.03228
2277.70721,2.03188
2276.67750,2.03140
2275.64780,2.03160
2274.61809,2.03277
2273.58839,2.03306
2272.55868,2.03325
2271.52898,2.03431
2270.49927,2.03522
2269.46957,2.03505
2268.43986,2.03400
2267.41016,2.03276
2266.38045,2.03270
2265.35075,2.03443
2264.32104,2.03555
2263.29134,2.03441
2262.26163,2.03239
2261.23193,2.03181
2260.20222,2.03260
2259.17252,2.03258
2258.14281,2.03224
2257.11311,2.03346
2256.08340,2.03556
2255.05370,2.03618
2254.02399,2.03509
2252.99429,2.03464
2251.96458,2.03507
2250.93488,2.03476
2249.90517,2.03462
2248.87547,2.03538
2247.84576,2.03598
2246.81606,2.03641
2245.78635,2.03714
2244.75665,2.03834
2243.72694,2.03921
2242.69724,2.03825
2241.66753,2.03629
2240.63783,2.03553
2239.60813,2.03538
2238.57842,2.03466
2237.54872,2.03348
2236.51901,2.03226
2235.48931,2.03234
2234.45960,2.03369
2233.42990,2.03391
2232.40019,2.03291
2231.37049,2.03236
2230.34078,2.03268
2229.31108,2.03421
2228.28137,2.03580
2227.25167,2.03579
2226.22196,2.03551
2225.19226,2.03576
2224.16255,2.03535
2223.13285,2.03466
2222.10314,2.03522
2221.07344,2.03647
2220.04373,2.03593
2219.01403,2.03381
2217.98432,2.03294
2216.95462,2.03392
2215.92491,2.03568
2214.89521,2.03765
2213.86550,2.03946
2212.83580,2.04007
2211.80609,2.03929
2210.77639,2.03870
2209.74668,2.03829
2208.71698,2.03790
2207.68727,2.03824
2206.65757,2.03831
2205.62786,2.03788
2204.59816,2.03827
2203.56845,2.03882
2202.53875,2.03824
2201.50904,2.03799
2200.47934,2.03908
2199.44963,2.03930
2198.41993,2.03791
2197.39022,2.03668
2196.36052,2.03681
2195.33081,2.03818
2194.30111,2.03912
2193.27141,2.03904
2192.24170,2.03918
2191.21200,2.03904
2190.18229,2.03811
2189.15259,2.03842
2188.12288,2.03949
2187.09318,2.03906
2186.06347,2.03817
2185.03377,2.03796
2184.00406,2.03823
2182.97436,2.03881
2181.94465,2.03887
2180.91495,2.03810
2179.88524,2.03709
2178.85554,2.03748
2177.82583,2.04061
2176.79613,2.04408
2175.76642,2.04459
2174.73672,2.04301
2173.70701,2.04110
2172.67731,2.03920
2171.64760,2.03757
2170.61790,2.03692
2169.58819,2.03835
2168.55849,2.04078
2167.52878,2.04153
2166.49908,2.04080
2165.46937,2.04053
2164.43967,2.04126
2163.40996,2.04226
2162.38026,2.04198
2161.35055,2.04088
2160.32085,2.04100
2159.29114,2.04249
2158.26144,2.04409
2157.23173,2.04546
2156.20203,2.04604
2155.17232,2.04445
2154.14262,2.04260
2153.11291,2.04291
2152.08321,2.04454
2151.05350,2.04589
2150.02380,2.04628
2148.99410,2.04738
2147.96439,2.04977
2146.93469,2.05075
2145.90498,2.05020
2144.87528,2.04944
2143.84557,2.04859
2142.81587,2.04871
2141.78616,2.04951
2140.75646,2.04964
2139.72675,2.04921
2138.69705,2.04855
2137.66734,2.04747
2136.63764,2.04626
2135.60793,2.04614
2134.57823,2.04762
2133.54852,2.04997
2132.51882,2.05124
2131.48911,2.05036
2130.45941,2.04917
2129.42970,2.04905
2128.40000,2.04938
2127.37029,2.04948
2126.34059,2.04873
2125.31088,2.04728
2124.28118,2.04715
2123.25147,2.04865
2122.22177,2.04912
2121.19206,2.04802
2120.16236,2.04690
2119.13265,2.04583
2118.10295,2.04497
2117.07324,2.04471
2116.04354,2.04515
2115.01383,2.04641
2113.98413,2.04734
2112.95442,2.04677
2111.92472,2.04555
2110.89501,2.04506
2109.86531,2.04577
2108.83560,2.04699
2107.80590,2.04690
2106.77619,2.04527
2105.74649,2.04423
2104.71679,2.04461
2103.68708,2.04476
2102.65738,2.04478
2101.62767,2.04579
2100.59797,2.04659
2099.56826,2.04714
2098.53856,2.04742
2097.50885,2.04662
2096.47915,2.04597
2095.44944,2.04632
2094.41974,2.04718
2093.39003,2.04768
2092.36033,2.04790
2091.33062,2.04832
2090.30092,2.04801
2089.27121,2.04715
2088.24151,2.04740
2087.21180,2.04848
2086.18210,2.04900
2085.15239,2.04886
2084.12269,2.04790
2083.09298,2.04608
2082.06328,2.04523
2081.03357,2.04569
2080.00387,2.04613
2078.97416,2.04706
2077.94446,2.04825
2076.91475,2.04895
2075.88505,2.04897
2074.85534,2.04858
2073.82564,2.04876
2072.79593,2.04874
2071.76623,2.04784
2070.73652,2.04705
2069.70682,2.04672
2068.67711,2.04689
2067.64741,2.04789
2066.61770,2.04920
2065.58800,2.04979
2064.55829,2.04882
2063.52859,2.04707
2062.49888,2.04736
2061.46918,2.05024
2060.43948,2.05244
2059.40977,2.05151
2058.38007,2.05004
2057.35036,2.05046
2056.32066,2.05073
2055.29095,2.05024
2054.26125,2.05026
2053.23154,2.05039
2052.20184,2.05076
2051.17213,2.05112
2050.14243,2.05042
2049.11272,2.04996
2048.08302,2.05034
2047.05331,2.05045
2046.02361,2.05003
2044.99390,2.04868
2043.96420,2.04713
2042.93449,2.04719
2041.90479,2.04842
2040.87508,2.04909
2039.84538,2.04879
2038.81567,2.04771
2037.78597,2.04615
2036.75626,2.04468
2035.72656,2.04403
2034.69685,2.04419
2033.66715,2.04394
2032.63744,2.04323
2031.60774,2.04288
2030.57803,2.04301
2029.54833,2.04326
2028.51862,2.04326
2027.48892,2.04363
2026.45921,2.04532
2025.42951,2.04661
2024.39980,2.04592
2023.37010,2.04501
2022.34039,2.04449
2021.31069,2.04357
2020.28098,2.04283
2019.25128,2.04277
2018.22157,2.04298
2017.19187,2.04336
2016.16216,2.04395
2015.13246,2.04439
2014.10276,2.04448
2013.07305,2.04450
2012.04335,2.04474
2011.01364,2.04441
2009.98394,2.04312
2008.95423,2.04191
2007.92453,2.04123
2006.89482,2.04074
2005.86512,2.04045
2004.83541,2.04153
2003.80571,2.04400
2002.77600,2.04559
2001.74630,2.04561
2000.71659,2.04473
1999.68689,2.04435
1998.65718,2.04496
1997.62748,2.04416
1996.59777,2.04252
1995.56807,2.04197
1994.53836,2.04208
1993.50866,2.04352
1992.47895,2.04609
1991.44925,2.04785
1990.41954,2.04869
1989.38984,2.04881
1988.36013,2.04821
1987.33043,2.04760
1986.30072,2.04684
1985.27102,2.04618
1984.24131,2.04630
1983.21161,2.04622
1982.18190,2.04507
1981.15220,2.04361
1980.12249,2.04358
1979.09279,2.04510
1978.06308,2.04627
1977.03338,2.04592
1976.00367,2.04519
1974.97397,2.04558
1973.94426,2.04552
1972.91456,2.04497
1971.88485,2.04644
1970.85515,2.04801
1969.82545,2.04700
1968.79574,2.04562
1967.76604,2.04599
1966.73633,2.04784
1965.70663,2.04975
1964.67692,2.05049
1963.64722,2.05025
1962.61751,2.04936
1961.58781,2.04845
1960.55810,2.04847
1959.52840,2.04932
1958.49869,2.05032
1957.46899,2.05213
1956.43928,2.05406
1955.40958,2.05304
1954.37987,2.05150
1953.35017,2.05252
1952.32046,2.05306
1951.29076,2.05176
1950.26105,2.04993
1949.23135,2.04883
1948.20164,2.04911
1947.17194,2.04953
1946.14223,2.04884
1945.11253,2.04825
1944.08282,2.04869
1943.05312,2.04851
1942.02341,2.04701
1940.99371,2.04703
1939.96400,2.04868
1938.93430,2.04958
1937.90459,2.04969
1936.87489,2.04954
1935.84518,2.04924
1934.81548,2.05013
1933.78577,2.05200
1932.75607,2.05197
1931.72636,2.04966
1930.69666,2.04785
1929.66695,2.04836
1928.63725,2.05118
1927.60754,2.05448
1926.57784,2.05612
1925.54814,2.05542
1924.51843,2.05411
1923.48873,2.05396
1922.45902,2.05428
1921.42932,2.05368
1920.39961,2.05298
1919.36991,2.05361
1918.34020,2.05470
1917.31050,2.05510
1916.28079,2.05548
1915.25109,2.05524
1914.22138,2.05446
1913.19168,2.05440
1912.16197,2.05491
1911.13227,2.05421
1910.10256,2.05234
1909.07286,2.05272
1908.04315,2.05559
1907.01345,2.05764
1905.98374,2.05789
1904.95404,2.05768
1903.92433,2.05732
1902.89463,2.05679
1901.86492,2.05750
1900.83522,2.05929
1899.80551,2.06024
1898.77581,2.05916
1897.74610,2.05787
1896.71640,2.05883
1895.68669,2.06013
1894.65699,2.05932
1893.62728,2.05852
1892.59758,2.05929
1891.56787,2.06071
1890.53817,2.06042
1889.50846,2.05712
1888.47876,2.05551
1887.44905,2.05799
1886.41935,2.06128
1885.38964,2.06201
1884.35994,2.06023
1883.33023,2.05887
1882.30053,2.05973
1881.27083,2.06227
1880.24112,2.06382
1879.21142,2.06361
1878.18171,2.06295
1877.15201,2.06189
1876.12230,2.06108
1875.09260,2.06190
1874.06289,2.06326
1873.03319,2.06355
1872.00348,2.06367
1870.97378,2.06514
1869.94407,2.06674
1868.91437,2.06619
1867.88466,2.06526
1866.85496,2.06517
1865.82525,2.06467
1864.79555,2.06407
1863.76584,2.06516
1862.73614,2.06826
1861.70643,2.07038
1860.67673,2.07002
1859.64702,2.06927
1858.61732,2.06972
1857.58761,2.07090
1856.55791,2.07181
1855.52820,2.07236
1854.49850,2.07191
1853.46879,2.07114
1852.43909,2.07203
1851.40938,2.07360
1850.37968,2.07465
1849.34997,2.07564
1848.32027,2.07535
1847.29056,2.07435
1846.26086,2.07477
1845.23115,2.07489
1844.20145,2.07394
1843.17174,2.07452
1842.14204,2.07691
1841.11233,2.07894
1840.08263,2.07934
1839.05292,2.07991
1838.02322,2.08136
1836.99351,2.08191
1835.96381,2.08171
1834.93411,2.08201
1833.90440,2.08258
1832.87470,2.08295
1831.84499,2.08380
1830.81529,2.08575
1829.78558,2.08723
1828.75588,2.08796
1827.72617,2.08974
1826.69647,2.09081
1825.66676,2.08915
1824.63706,2.08706
1823.60735,2.08927
1822.57765,2.09443
1821.54794,2.09924
1820.51824,2.10076
1819.48853,2.09908
1818.45883,2.09794
1817.42912,2.09913
1816.39942,2.10127
1815.36971,2.10341
1814.34001,2.10550
1813.31030,2.10736
1812.28060,2.10829
1811.25089,2.10859
1810.22119,2.11013
1809.19148,2.11319
1808.16178,2.11700
1807.13207,2.12032
1806.10237,2.12225
1805.07266,2.12465
1804.04296,2.12872
1803.01325,2.13340
1801.98355,2.13672
1800.95384,2.13954
1799.92414,2.14386
1798.89443,2.14763
1797.86473,2.15082
1796.83502,2.15317
1795.80532,2.15238
1794.77561,2.15216
1793.74591,2.15372
1792.71620,2.15258
1791.68650,2.15125
1790.65680,2.15422
1789.62709,2.15802
1788.59739,2.16093
1787.56768,2.16258
1786.53798,2.16310
1785.50827,2.16235
1784.47857,2.15906
1783.44886,2.15722
1782.41916,2.16112
1781.38945,2.16720
1780.35975,2.16871
1779.33004,2.16716
1778.30034,2.16804
1777.27063,2.17135
1776.24093,2.17441
1775.21122,2.17406
1774.18152,2.17304
1773.15181,2.17409
1772.12211,2.17404
1771.09240,2.17508
1770.06270,2.17908
1769.03299,2.18151
1768.00329,2.18093
1766.97358,2.18203
1765.94388,2.18612
1764.91417,2.18992
1763.88447,2.19276
1762.85476,2.19478
1761.82506,2.19577
1760.79535,2.19754
1759.76565,2.19933
1758.73594,2.19966
1757.70624,2.20031
1756.67653,2.20407
1755.64683,2.20984
1754.61712,2.21452
1753.58742,2.21918
1752.55771,2.22446
1751.52801,2.22648
1750.49830,2.22378
1749.46860,2.22396
1748.43889,2.22832
1747.40919,2.23149
1746.37949,2.23175
1745.34978,2.23342
1744.32008,2.23574
1743.29037,2.23365
1742.26067,2.23160
1741.23096,2.23545
1740.20126,2.23776
1739.17155,2.23066
1738.14185,2.22509
1737.11214,2.22363
1736.08244,2.22231
1735.05273,2.21922
1734.02303,2.21153
1732.99332,2.20901
1731.96362,2.21296
1730.93391,2.21645
1729.90421,2.21713
1728.87450,2.21704
1727.84480,2.21809
1726.81509,2.21746
1725.78539,2.21476
1724.75568,2.21238
1723.72598,2.21215
1722.69627,2.21343
1721.66657,2.21415
1720.63686,2.21476
1719.60716,2.21590
1718.57745,2.21672
1717.54775,2.21485
1716.51804,2.21408
1715.48834,2.21516
1714.45863,2.21369
1713.42893,2.21059
1712.39922,2.20805
1711.36952,2.20583
1710.33981,2.20417
1709.31011,2.20313
1708.28040,2.20334
1707.25070,2.20452
1706.22099,2.20409
1705.19129,2.20125
1704.16158,2.19833
1703.13188,2.19699
1702.10218,2.19750
1701.07247,2.19606
1700.04277,2.18533
1699.01306,2.18553
1697.98336,2.19107
1696.95365,2.19158
1695.92395,2.18274
1694.89424,2.17482
1693.86454,2.17562
1692.83483,2.17726
1691.80513,2.17766
1690.77542,2.17656
1689.74572,2.17255
1688.71601,2.16819
1687.68631,2.16509
1686.65660,2.16234
1685.62690,2.15968
1684.59719,2.15165
1683.56749,2.14069
1682.53778,2.14103
1681.50808,2.14180
1680.47837,2.14013
1679.44867,2.13806
1678.41896,2.13755
1677.38926,2.13841
1676.35955,2.13989
1675.32985,2.13617
1674.30014,2.12952
1673.27044,2.12891
1672.24073,2.12785
1671.21103,2.12375
1670.18132,2.12242
1669.15162,2.12406
1668.12191,2.12420
1667.09221,2.12504
1666.06250,2.12672
1665.03280,2.12679
1664.00309,2.12432
1662.97339,2.12050
1661.94368,2.11784
1660.91398,2.11805
1659.88427,2.11976
1658.85457,2.11966
1657.82486,2.11754
1656.79516,2.11742
1655.76546,2.12119
1654.73575,2.12848
1653.70605,2.13411
1652.67634,2.11395
1651.64664,2.10497
1650.61693,2.10782
1649.58723,2.11111
1648.55752,2.11223
1647.52782,2.11055
1646.49811,2.10826
1645.46841,2.10732
1644.43870,2.10825
1643.40900,2.10948
1642.37929,2.11049
1641.34959,2.11185
1640.31988,2.11242
1639.29018,2.11236
1638.26047,2.11354
1637.23077,2.11617
1636.20106,2.11802
1635.17136,2.11314
1634.14165,2.10906
1633.11195,2.11111
1632.08224,2.11509
1631.05254,2.11891
1630.02283,2.12204
1628.99313,2.12458
1627.96342,2.12434
1626.93372,2.12120
1625.90401,2.12128
1624.87431,2.12504
1623.84460,2.12878
1622.81490,2.12852
1621.78519,2.12682
1620.75549,2.12698
1619.72578,2.12776
1618.69608,2.12891
1617.66637,2.13089
1616.63667,2.12744
1615.60696,2.12224
1614.57726,2.12371
1613.54755,2.12488
1612.51785,2.12435
1611.48815,2.12551
1610.45844,2.12748
1609.42874,2.12692
1608.39903,2.12493
1607.36933,2.12349
1606.33962,2.12266
1605.30992,2.12278
1604.28021,2.12335
1603.25051,2.12445
1602.22080,2.12573
1601.19110,2.12473
1600.16139,2.12153
1599.13169,2.11978
1598.10198,2.12108
1597.07228,2.12229
1596.04257,2.12121
1595.01287,2.11919
1593.98316,2.11663
1592.95346,2.11431
1591.92375,2.11341
1590.89405,2.11355
1589.86434,2.11437
1588.83464,2.11451
1587.80493,2.11265
1586.77523,2.11102
1585.74552,2.11141
1584.71582,2.11219
1583.68611,2.11253
1582.65641,2.11255
1581.62670,2.11215
1580.59700,2.11164
1579.56729,2.11174
1578.53759,2.11370
1577.50788,2.11739
1576.47818,2.11710
1575.44847,2.10884
1574.41877,2.10594
1573.38906,2.10748
1572.35936,2.10931
1571.32965,2.11053
1570.29995,2.11052
1569.27024,2.10684
1568.24054,2.10410
1567.21084,2.10631
1566.18113,2.11005
1565.15143,2.11002
1564.12172,2.10507
1563.09202,2.10378
1562.06231,2.10886
1561.03261,2.11707
1560.00290,2.12522
1558.97320,2.12381
1557.94349,2.10937
1556.91379,2.10347
1555.88408,2.10509
1554.85438,2.10772
1553.82467,2.10503
1552.79497,2.10242
1551.76526,2.10295
1550.73556,2.10411
1549.70585,2.10304
1548.67615,2.10189
1547.64644,2.10355
1546.61674,2.10555
1545.58703,2.10499
1544.55733,2.10080
1543.52762,2.09651
1542.49792,2.08890
1541.46821,2.07696
1540.43851,2.06683
1539.40880,2.03760
1538.37910,2.00496
1537.34939,1.99367
1536.31969,1.98901
1535.28998,1.98895
1534.26028,1.99280
1533.23057,1.99297
1532.20087,1.99160
1531.17116,1.99450
1530.14146,1.99909
1529.11175,2.00361
1528.08205,2.00728
1527.05234,2.01130
1526.02264,2.01694
1524.99293,2.02115
1523.96323,2.02377
1522.93353,2.02877
1521.90382,2.03466
1520.87412,2.03536
1519.84441,2.03381
1518.81471,2.03445
1517.78500,2.03749
1516.75530,2.04051
1515.72559,2.04095
1514.69589,2.04235
1513.66618,2.04531
1512.63648,2.04905
1511.60677,2.05262
1510.57707,2.05659
1509.54736,2.06153
1508.51766,2.06751
1507.48795,2.07648
1506.45825,2.07802
1505.42854,2.06793
1504.39884,2.06580
1503.36913,2.06772
1502.33943,2.07147
1501.30972,2.07680
1500.28002,2.08142
1499.25031,2.08292
1498.22061,2.08138
1497.19090,2.08173
1496.16120,2.08386
1495.13149,2.08490
1494.10179,2.08652
1493.07208,2.08771
1492.04238,2.08908
1491.01267,2.09205
1489.98297,2.09380
1488.95326,2.09445
1487.92356,2.09732
1486.89385,2.10052
1485.86415,2.10244
1484.83444,2.10491
1483.80474,2.10753
1482.77503,2.10913
1481.74533,2.11086
1480.71562,2.11406
1479.68592,2.11936
1478.65621,2.12651
1477.62651,2.13325
1476.59681,2.13689
1475.56710,2.13756
1474.53740,2.14004
1473.50769,2.14495
1472.47799,2.14460
1471.44828,2.13842
1470.41858,2.13649
1469.38887,2.13737
1468.35917,2.13722
1467.32946,2.13391
1466.29976,2.12947
1465.27005,2.12464
1464.24035,2.11525
1463.21064,2.10591
1462.18094,2.10118
1461.15123,2.10090
1460.12153,2.10366
1459.09182,2.10620
1458.06212,2.10621
1457.03241,2.09939
1456.00271,2.08921
1454.97300,2.08672
1453.94330,2.08751
1452.91359,2.08831
1451.88389,2.08942
1450.85418,2.09093
1449.82448,2.09176
1448.79477,2.09174
1447.76507,2.08989
1446.73536,2.08691
1445.70566,2.08617
1444.67595,2.08626
1443.64625,2.08513
1442.61654,2.08416
1441.58684,2.08435
1440.55713,2.08523
1439.52743,2.08684
1438.49772,2.09019
1437.46802,2.09456
1436.43831,2.09246
1435.40861,2.08778
1434.37890,2.08914
1433.34920,2.09147
1432.31950,2.09214
1431.28979,2.09220
1430.26009,2.09171
1429.23038,2.09067
1428.20068,2.09049
1427.17097,2.09187
1426.14127,2.09432
1425.11156,2.09574
1424.08186,2.09463
1423.05215,2.09342
1422.02245,2.09391
1420.99274,2.09544
1419.96304,2.09652
1418.93333,2.09306
1417.90363,2.08901
1416.87392,2.08849
1415.84422,2.08885
1414.81451,2.08845
1413.78481,2.08795
1412.75510,2.08685
1411.72540,2.08323
1410.69569,2.08017
1409.66599,2.08017
1408.63628,2.08019
1407.60658,2.07956
1406.57687,2.08010
1405.54717,2.08178
1404.51746,2.08274
1403.48776,2.08256
1402.45805,2.08227
1401.42835,2.08088
1400.39864,2.07713
1399.36894,2.06975
1398.33923,2.06074
1397.30953,2.05544
1396.27982,2.05311
1395.25012,2.05162
1394.22041,2.05036
1393.19071,2.05069
1392.16100,2.05265
1391.13130,2.05441
1390.10159,2.05525
1389.07189,2.05688
1388.04219,2.05897
1387.01248,2.05826
1385.98278,2.05642
1384.95307,2.05541
1383.92337,2.05488
1382.89366,2.05596
1381.86396,2.05770
1380.83425,2.05851
1379.80455,2.05870
1378.77484,2.05924
1377.74514,2.06080
1376.71543,2.06324
1375.68573,2.06574
1374.65602,2.06642
1373.62632,2.06489
1372.59661,2.06347
1371.56691,2.06320
1370.53720,2.06371
1369.50750,2.06436
1368.47779,2.06436
1367.44809,2.06335
1366.41838,2.06105
1365.38868,2.05743
1364.35897,2.05364
1363.32927,2.04860
1362.29956,2.04302
1361.26986,2.03997
1360.24015,2.03832
1359.21045,2.03764
1358.18074,2.03751
1357.15104,2.03813
1356.12133,2.03983
1355.09163,2.04150
1354.06192,2.04348
1353.03222,2.04599
1352.00251,2.04788
1350.97281,2.04863
1349.94310,2.04881
1348.91340,2.04944
1347.88369,2.05159
1346.85399,2.05549
1345.82428,2.05901
1344.79458,2.05978
1343.76488,2.05933
1342.73517,2.06042
1341.70547,2.06255
1340.67576,2.06396
1339.64606,2.06391
1338.61635,2.06297
1337.58665,2.06291
1336.55694,2.06465
1335.52724,2.06814
1334.49753,2.07265
1333.46783,2.07592
1332.43812,2.07693
1331.40842,2.07806
1330.37871,2.08103
1329.34901,2.08421
1328.31930,2.08562
1327.28960,2.08583
1326.25989,2.08630
1325.23019,2.08685
1324.20048,2.08497
1323.17078,2.07978
1322.14107,2.07332
1321.11137,2.06697
1320.08166,2.05990
1319.05196,2.05144
1318.02225,2.04296
1316.99255,2.03514
1315.96284,2.02873
1314.93314,2.02515
1313.90343,2.02503
1312.87373,2.02776
1311.84402,2.03035
1310.81432,2.03137
1309.78461,2.03304
1308.75491,2.03554
1307.72520,2.03751
1306.69550,2.03951
1305.66579,2.04149
1304.63609,2.04365
1303.60638,2.04634
1302.57668,2.04867
1301.54697,2.05026
1300.51727,2.05080
1299.48756,2.05127
1298.45786,2.05250
1297.42816,2.05300
1296.39845,2.05299
1295.36875,2.05387
1294.33904,2.05501
1293.30934,2.05525
1292.27963,2.05471
1291.24993,2.05456
1290.22022,2.05490
1289.19052,2.05545
1288.16081,2.05631
1287.13111,2.05682
1286.10140,2.05724
1285.07170,2.05821
1284.04199,2.05894
1283.01229,2.05872
1281.98258,2.05827
1280.95288,2.05848
1279.92317,2.05987
1278.89347,2.06108
1277.86376,2.05985
1276.83406,2.05757
1275.80435,2.05704
1274.77465,2.05816
1273.74494,2.05936
1272.71524,2.06042
1271.68553,2.06135
1270.65583,2.06103
1269.62612,2.06051
1268.59642,2.06057
1267.56671,2.05984
1266.53701,2.05945
1265.50730,2.06039
1264.47760,2.06232
1263.44789,2.06447
1262.41819,2.06445
1261.38848,2.06326
1260.35878,2.06365
1259.32907,2.06560
1258.29937,2.06828
1257.26966,2.07068
1256.23996,2.07193
1255.21025,2.07112
1254.18055,2.06973
1253.15085,2.06996
1252.12114,2.07004
1251.09144,2.06820
1250.06173,2.06582
1249.03203,2.06528
1248.00232,2.06616
1246.97262,2.06611
1245.94291,2.06510
1244.91321,2.06367
1243.88350,2.06221
1242.85380,2.06198
1241.82409,2.06298
1240.79439,2.06416
1239.76468,2.06463
1238.73498,2.06418
1237.70527,2.06364
1236.67557,2.06359
1235.64586,2.06415
1234.61616,2.06461
1233.58645,2.06355
1232.55675,2.06190
1231.52704,2.06213
1230.49734,2.06355
1229.46763,2.06499
1228.43793,2.06649
1227.40822,2.06791
1226.37852,2.07040
1225.34881,2.07347
1224.31911,2.07480
1223.28940,2.07451
1222.25970,2.07407
1221.22999,2.07338
1220.20029,2.07275
1219.17058,2.07313
1218.14088,2.07378
1217.11117,2.07453
1216.08147,2.07622
1215.05176,2.07865
1214.02206,2.08114
1212.99235,2.08354
1211.96265,2.08555
1210.93294,2.08685
1209.90324,2.08596
1208.87354,2.08330
1207.84383,2.08362
1206.81413,2.08595
1205.78442,2.08558
1204.75472,2.08479
1203.72501,2.08657
1202.69531,2.08933
1201.66560,2.09117
1200.63590,2.09205
1199.60619,2.09262
1198.57649,2.09259
1197.54678,2.09291
1196.51708,2.09453
1195.48737,2.09551
1194.45767,2.09509
1193.42796,2.09491
1192.39826,2.09527
1191.36855,2.09525
1190.33885,2.09453
1189.30914,2.09406
1188.27944,2.09380
1187.24973,2.09264
1186.22003,2.09097
1185.19032,2.08969
1184.16062,2.08842
1183.13091,2.08686
1182.10121,2.08642
1181.07150,2.08656
1180.04180,2.08598
1179.01209,2.08575
1177.98239,2.08521
1176.95268,2.08441
1175.92298,2.08394
1174.89327,2.08221
1173.86357,2.07977
1172.83386,2.07789
1171.80416,2.07565
1170.77445,2.07275
1169.74475,2.07115
1168.71504,2.07227
1167.68534,2.07457
1166.65563,2.07497
1165.62593,2.07292
1164.59623,2.07082
1163.56652,2.06972
1162.53682,2.06734
1161.50711,2.06378
1160.47741,2.06318
1159.44770,2.06577
1158.41800,2.06733
1157.38829,2.06550
1156.35859,2.06242
1155.32888,2.06044
1154.29918,2.05844
1153.26947,2.05641
1152.23977,2.05606
1151.21006,2.05813
1150.18036,2.06121
1149.15065,2.06153
1148.12095,2.05874
1147.09124,2.05708
1146.06154,2.05852
1145.03183,2.06061
1144.00213,2.06068
1142.97242,2.05866
1141.94272,2.05650
1140.91301,2.05644
1139.88331,2.05887
1138.85360,2.06201
1137.82390,2.06345
1136.79419,2.06240
1135.76449,2.05991
1134.73478,2.05737
1133.70508,2.05544
1132.67537,2.05402
1131.64567,2.05376
1130.61596,2.05433
1129.58626,2.05441
1128.55655,2.05417
1127.52685,2.05350
1126.49714,2.05170
1125.46744,2.04989
1124.43773,2.04881
1123.40803,2.04792
1122.37832,2.04689
1121.34862,2.04506
1120.31891,2.04237
1119.28921,2.04064
1118.25951,2.04130
1117.22980,2.04130
1116.20010,2.03941
1115.17039,2.03909
1114.14069,2.03928
1113.11098,2.03794
1112.08128,2.03659
1111.05157,2.03506
1110.02187,2.03319
1108.99216,2.03267
1107.96246,2.03361
1106.93275,2.03491
1105.90305,2.03644
1104.87334,2.03656
1103.84364,2.03307
1102.81393,2.02914
1101.78423,2.02838
1100.75452,2.02914
1099.72482,2.02919
1098.69511,2.02865
1097.66541,2.02885
1096.63570,2.02933
1095.60600,2.02863
1094.57629,2.02749
1093.54659,2.02709
1092.51688,2.02696
1091.48718,2.02643
1090.45747,2.02569
1089.42777,2.02503
1088.39806,2.02520
1087.36836,2.02584
1086.33865,2.02565
1085.30895,2.02489
1084.27924,2.02434
1083.24954,2.02428
1082.21983,2.02433
1081.19013,2.02433
1080.16042,2.02434
1079.13072,2.02405
1078.10101,2.02319
1077.07131,2.02101
1076.04160,2.01794
1075.01190,2.01569
1073.98220,2.01385
1072.95249,2.01185
1071.92279,2.01016
1070.89308,2.00790
1069.86338,2.00486
1068.83367,2.00183
1067.80397,1.99812
1066.77426,1.99449
1065.74456,1.99295
1064.71485,1.99269
1063.68515,1.99204
1062.65544,1.99131
1061.62574,1.99067
1060.59603,1.98911
1059.56633,1.98644
1058.53662,1.98410
1057.50692,1.98243
1056.47721,1.98094
1055.44751,1.98096
1054.41780,1.98219
1053.38810,1.98168
1052.35839,1.98018
1051.32869,1.97959
1050.29898,1.97862
1049.26928,1.97798
1048.23957,1.97906
1047.20987,1.98021
1046.18016,1.97907
1045.15046,1.97559
1044.12075,1.97223
1043.09105,1.97098
1042.06134,1.97098
1041.03164,1.97048
1040.00193,1.96998
1038.97223,1.97004
1037.94252,1.96897
1036.91282,1.96607
1035.88311,1.96284
1034.85341,1.96055
1033.82370,1.95978
1032.79400,1.96049
1031.76429,1.96066
1030.73459,1.95921
1029.70489,1.95832
1028.67518,1.95914
1027.64548,1.96046
1026.61577,1.96173
1025.58607,1.96270
1024.55636,1.96258
1023.52666,1.96227
1022.49695,1.96330
1021.46725,1.96478
1020.43754,1.96564
1019.40784,1.96762
1018.37813,1.96887
1017.34843,1.96668
1016.31872,1.96538
1015.28902,1.96737
1014.25931,1.96857
1013.22961,1.96825
1012.19990,1.96948
1011.17020,1.97046
1010.14049,1.96917
1009.11079,1.96875
1008.08108,1.97058
1007.05138,1.97136
1006.02167,1.97036
1004.99197,1.97028
1003.96226,1.97022
1002.93256,1.97097
1001.90285,1.97424
1000.87315,1.97587
999.84344,1.97444
998.81374,1.97363
997.78403,1.97461
996.75433,1.97662
995.72462,1.97871
994.69492,1.97989
993.66521,1.98024
992.63551,1.98072
991.60580,1.98134
990.57610,1.98127
989.54639,1.98292
988.51669,1.98671
987.48698,1.98941
986.45728,1.99080
985.42758,1.99083
984.39787,1.98968
983.36817,1.98904
982.33846,1.98739
981.30876,1.98356
980.27905,1.98151
979.24935,1.98234
978.21964,1.98341
977.18994,1.98450
976.16023,1.98512
975.13053,1.98445
974.10082,1.98297
973.07112,1.98184
972.04141,1.98227
971.01171,1.98350
969.98200,1.98340
968.95230,1.98306
967.92259,1.98468
966.89289,1.98624
965.86318,1.98635
964.83348,1.98687
963.80377,1.98804
962.77407,1.98854
961.74436,1.98769
960.71466,1.98593
959.68495,1.98577
958.65525,1.98801
957.62554,1.98901
956.59584,1.98666
955.56613,1.98392
954.53643,1.98308
953.50672,1.98349
952.47702,1.98538
951.44731,1.98779
950.41761,1.98755
949.38790,1.98535
948.35820,1.98560
947.32849,1.98816
946.29879,1.98950
945.26908,1.99017
944.23938,1.99081
943.20967,1.99077
942.17997,1.99129
941.15026,1.99254
940.12056,1.99314
939.09086,1.99309
938.06115,1.99459
937.03145,1.99749
936.00174,1.99922
934.97204,1.99933
933.94233,1.99762
932.91263,1.99623
931.88292,1.99843
930.85322,2.00041
929.82351,1.99874
928.79381,1.99611
927.76410,1.99524
926.73440,1.99719
925.70469,1.99990
924.67499,1.99964
923.64528,1.99708
922.61558,1.99589
921.58587,1.99536
920.55617,1.99520
919.52646,1.99852
918.49676,2.00328
917.46705,2.00469
916.43735,2.00325
915.40764,2.00162
914.37794,1.99981
913.34823,1.99905
912.31853,2.00050
911.28882,2.00136
910.25912,2.00119
909.22941,2.00288
908.19971,2.00492
907.17000,2.00478
906.14030,2.00336
905.11059,2.00300
904.08089,2.00398
903.05118,2.00306
902.02148,2.00149
900.99177,2.00320
899.96207,2.00588
898.93236,2.00614
897.90266,2.00586
896.87295,2.00666
895.84325,2.00750
894.81355,2.00913
893.78384,2.00979
892.75414,2.00782
891.72443,2.00737
890.69473,2.00995
889.66502,2.01296
888.63532,2.01448
887.60561,2.01371
886.57591,2.01182
885.54620,2.01107
884.51650,2.01279
883.48679,2.01682
882.45709,2.02098
881.42738,2.02218
880.39768,2.02094
879.36797,2.02024
878.33827,2.01974
877.30856,2.02035
876.27886,2.02379
875.24915,2.02673
874.21945,2.02689
873.18974,2.02588
872.16004,2.02509
871.13033,2.02533
870.10063,2.02662
869.07092,2.02929
868.04122,2.03131
867.01151,2.02926
865.98181,2.02666
864.95210,2.02764
863.92240,2.02964
862.89269,2.03011
861.86299,2.03065
860.83328,2.03022
859.80358,2.02650
858.77387,2.02412
857.74417,2.02643
856.71446,2.03064
855.68476,2.03517
854.65505,2.03833
853.62535,2.03814
852.59564,2.03869
851.56594,2.04359
850.53624,2.04911
849.50653,2.05121
848.47683,2.04957
847.44712,2.04515
846.41742,2.04061
845.38771,2.03749
844.35801,2.03426
843.32830,2.03279
842.29860,2.03398
841.26889,2.03432
840.23919,2.03491
839.20948,2.03667
838.17978,2.03690
837.15007,2.03705
836.12037,2.03836
835.09066,2.03736
834.06096,2.03315
833.03125,2.03053
832.00155,2.03355
830.97184,2.03855
829.94214,2.04088
828.91243,2.04201
827.88273,2.04136
826.85302,2.03527
825.82332,2.02504
824.79361,2.01603
823.76391,2.01228
822.73420,2.01186
821.70450,2.00912
820.67479,2.00358
819.64509,1.99857
818.61538,1.99556
817.58568,1.99648
816.55597,2.00030
815.52627,2.00145
814.49656,2.00187
813.46686,2.00632
812.43715,2.00918
811.40745,2.00788
810.37774,2.00678
809.34804,2.00501
808.31833,2.00311
807.28863,2.00248
806.25893,2.00194
805.22922,2.00317
804.19952,2.00556
803.16981,2.00756
802.14011,2.01023
801.11040,2.01262
800.08070,2.01294
799.05099,2.01384
798.02129,2.01786
796.99158,2.02034
795.96188,2.01764
794.93217,2.01309
793.90247,2.01005
792.87276,2.00800
791.84306,2.00637
790.81335,2.00642
789.78365,2.00911
788.75394,2.01327
787.72424,2.01567
786.69453,2.01662
785.66483,2.01979
784.63512,2.02367
783.60542,2.02471
782.57571,2.02551
781.54601,2.02823
780.51630,2.02929
779.48660,2.02758
778.45689,2.02599
777.42719,2.02340
776.39748,2.01841
775.36778,2.01575
774.33807,2.01725
773.30837,2.01882
772.27866,2.01828
771.24896,2.01703
770.21925,2.01336
769.18955,2.00759
768.15984,2.00464
767.13014,2.00479
766.10043,2.00613
765.07073,2.00860
764.04102,2.01437
763.01132,2.02175
761.98161,2.02361
760.95191,2.02223
759.92221,2.02381
758.89250,2.02618
757.86280,2.02744
756.83309,2.03507
755.80339,2.05746
754.77368,2.07927
753.74398,2.07267
752.71427,2.04556
751.68457,2.02337
750.65486,2.01251
749.62516,2.00833
748.59545,2.00553
747.56575,2.00324
746.53604,2.00215
745.50634,2.00049
744.47663,1.99735
743.44693,1.99326
742.41722,1.98956
741.38752,1.98455
740.35781,1.97835
739.32811,1.97754
738.29840,1.98336
737.26870,1.98899
736.23899,1.99087
735.20929,1.99126
734.17958,1.98951
733.14988,1.98472
732.12017,1.98271
731.09047,1.98324
730.06076,1.98104
729.03106,1.97762
728.00135,1.97736
726.97165,1.98068
725.94194,1.98427
724.91224,1.98687
723.88253,1.98850
722.85283,1.98609
721.82312,1.97789
720.79342,1.97064
719.76371,1.97040
718.73401,1.97339
717.70430,1.97425
716.67460,1.97368
715.64490,1.97543
714.61519,1.97774
713.58549,1.97609
712.55578,1.97422
711.52608,1.97787
710.49637,1.98167
709.46667,1.98187
708.43696,1.98099
707.40726,1.98009
706.37755,1.98136
705.34785,1.98253
704.31814,1.97989
703.28844,1.97606
702.25873,1.97740
701.22903,1.98251
700.19932,1.98410
699.16962,1.98303
698.13991,1.98413
697.11021,1.98687
696.08050,1.98575
695.05080,1.98305
694.02109,1.98320
692.99139,1.98554
691.96168,1.99071
690.93198,1.99383
689.90227,1.98878
688.87257,1.98207
687.84286,1.98193
686.81316,1.98482
685.78345,1.98735
684.75375,1.99040
683.72404,1.99228
682.69434,1.99101
681.66463,1.98502
680.63493,1.97845
679.60522,1.97603
678.57552,1.97881
677.54581,1.98272
676.51611,1.98202
675.48640,1.98201
674.45670,1.98296
673.42699,1.97551
672.39729,1.96281
671.36759,1.95809
670.33788,1.96547
669.30818,1.97828
668.27847,1.98274
667.24877,1.96807
666.21906,1.96101
665.18936,1.95870
664.15965,1.95747
663.12995,1.95818
662.10024,1.95661
661.07054,1.95827
660.04083,1.96881
659.01113,1.97870
657.98142,1.98058
656.95172,1.97799
655.92201,1.97578
654.89231,1.97206
653.86260,1.96891
652.83290,1.97451
651.80319,1.98256
650.77349,1.98110
649.74378,1.97606
648.71408,1.97599
647.68437,1.97526
646.65467,1.97822
645.62496,1.99149
644.59526,2.00259
643.56555,2.00302
642.53585,1.99906
641.50614,1.99993
640.47644,2.00758
639.44673,2.01087
638.41703,1.99725
637.38732,1.97689
636.35762,1.97088
635.32791,1.97468
634.29821,1.96625
633.26850,1.95190
632.23880,1.94790
631.20909,1.94869
630.17939,1.95018
629.14968,1.95547
628.11998,1.96543
627.09028,1.97168
626.06057,1.96524
625.03087,1.95623
624.00116,1.95874
622.97146,1.96479
621.94175,1.96221
620.91205,1.96148
619.88234,1.97697
618.85264,1.99751
617.82293,2.00671
616.79323,2.00522
615.76352,1.99193
614.73382,1.97758
613.70411,1.98875
612.67441,2.01498
611.64470,2.01561
610.61500,1.98990
609.58529,1.96628
608.55559,1.95473
607.52588,1.93847
606.49618,1.90508
605.46647,1.87938
604.43677,1.87718
603.40706,1.88069
602.37736,1.87550
601.34765,1.86718
600.31795,1.86186
599.28824,1.86410
