5998.03096,1.76070
5997.00125,1.76070
5995.97155,1.76070
5994.94184,1.76070
5993.91214,1.76070
5992.88243,1.76070
5991.85273,1.76070
5990.82302,1.76070
5989.79332,1.76070
5988.76361,1.76070
5987.73391,1.76070
5986.70420,1.76070
5985.67450,1.76070
5984.64479,1.76072
5983.61509,1.76083
5982.58538,1.76103
5981.55568,1.76126
5980.52597,1.76146
5979.49627,1.76165
5978.46656,1.76194
5977.43686,1.76241
5976.40715,1.76306
5975.37745,1.76383
5974.34774,1.76472
5973.31804,1.76567
5972.28833,1.76659
5971.25863,1.76739
5970.22892,1.76809
5969.19922,1.76875
5968.16951,1.76938
5967.13981,1.76998
5966.11010,1.77063
5965.08040,1.77143
5964.05069,1.77242
5963.02099,1.77346
5961.99128,1.77435
5960.96158,1.77510
5959.93187,1.77580
5958.90217,1.77641
5957.87247,1.77680
5956.84276,1.77692
5955.81306,1.77684
5954.78335,1.77668
5953.75365,1.77652
5952.72394,1.77632
5951.69424,1.77597
5950.66453,1.77545
5949.63483,1.77479
5948.60512,1.77398
5947.57542,1.77303
5946.54571,1.77208
5945.51601,1.77126
5944.48630,1.77055
5943.45660,1.76989
5942.42689,1.76938
5941.39719,1.76916
5940.36748,1.76924
5939.33778,1.76949
5938.30807,1.76974
5937.27837,1.76994
5936.24866,1.77017
5935.21896,1.77047
5934.18925,1.77076
5933.15955,1.77098
5932.12984,1.77115
5931.10014,1.77129
5930.07043,1.77138
5929.04073,1.77142
5928.01102,1.77145
5926.98132,1.77149
5925.95161,1.77161
5924.92191,1.77183
5923.89220,1.77218
5922.86250,1.77270
5921.83279,1.77333
5920.80309,1.77399
5919.77338,1.77466
5918.74368,1.77540
5917.71397,1.77624
5916.68427,1.77718
5915.65456,1.77819
5914.62486,1.77924
5913.59515,1.78030
5912.56545,1.78137
5911.53575,1.78245
5910.50604,1.78354
5909.47634,1.78465
5908.44663,1.78576
5907.41693,1.78682
5906.38722,1.78779
5905.35752,1.78865
5904.32781,1.78945
5903.29811,1.79017
5902.26840,1.79084
5901.23870,1.79150
5900.20899,1.79218
5899.17929,1.79288
5898.14958,1.79351
5897.11988,1.79401
5896.09017,1.79444
5895.06047,1.79488
5894.03076,1.79532
5893.00106,1.79571
5891.97135,1.79613
5890.94165,1.79663
5889.91194,1.79716
5888.88224,1.79769
5887.85253,1.79821
5886.82283,1.79883
5885.79312,1.79961
5884.76342,1.80048
5883.73371,1.80131
5882.70401,1.80202
5881.67430,1.80256
5880.64460,1.80302
5879.61489,1.80342
5878.58519,1.80374
5877.55548,1.80405
5876.52578,1.80441
5875.49607,1.80475
5874.46637,1.80494
5873.43666,1.80491
5872.40696,1.80477
5871.37725,1.80465
5870.34755,1.80457
5869.31784,1.80453
5868.28814,1.80451
5867.25844,1.80451
5866.22873,1.80451
5865.19903,1.80447
5864.16932,1.80438
5863.13962,1.80429
5862.10991,1.80427
5861.08021,1.80428
5860.05050,1.80428
5859.02080,1.80428
5857.99109,1.80431
5856.96139,1.80442
5855.93168,1.80462
5854.90198,1.80482
5853.87227,1.80497
5852.84257,1.80510
5851.81286,1.80516
5850.78316,1.80503
5849.75345,1.80468
5848.72375,1.80426
5847.69404,1.80397
5846.66434,1.80384
5845.63463,1.80381
5844.60493,1.80385
5843.57522,1.80397
5842.54552,1.80417
5841.51581,1.80442
5840.48611,1.80469
5839.45640,1.80503
5838.42670,1.80552
5837.39699,1.80624
5836.36729,1.80723
5835.33758,1.80848
5834.30788,1.80994
5833.27817,1.81155
5832.24847,1.81319
5831.21876,1.81476
5830.18906,1.81622
5829.15935,1.81754
5828.12965,1.81867
5827.09994,1.81956
5826.07024,1.82023
5825.04053,1.82077
5824.01083,1.82129
5822.98113,1.82182
5821.95142,1.82225
5820.92172,1.82255
5819.89201,1.82273
5818.86231,1.82271
5817.83260,1.82245
5816.80290,1.82193
5815.77319,1.82127
5814.74349,1.82062
5813.71378,1.82006
5812.68408,1.81962
5811.65437,1.81931
5810.62467,1.81908
5809.59496,1.81890
5808.56526,1.81876
5807.53555,1.81864
5806.50585,1.81860
5805.47614,1.81870
5804.44644,1.81893
5803.41673,1.81928
5802.38703,1.81978
5801.35732,1.82047
5800.32762,1.82135
5799.29791,1.82242
5798.26821,1.82364
5797.23850,1.82500
5796.20880,1.82649
5795.17909,1.82799
5794.14939,1.82940
5793.11968,1.83076
5792.08998,1.83216
5791.06027,1.83365
5790.03057,1.83521
5789.00086,1.83678
5787.97116,1.83831
5786.94145,1.83969
5785.91175,1.84082
5784.88204,1.84162
5783.85234,1.84206
5782.82263,1.84214
5781.79293,1.84193
5780.76322,1.84150
5779.73352,1.84081
5778.70382,1.83980
5777.67411,1.83858
5776.64441,1.83728
5775.61470,1.83602
5774.58500,1.83486
5773.55529,1.83392
5772.52559,1.83324
5771.49588,1.83276
5770.46618,1.83239
5769.43647,1.83218
5768.40677,1.83221
5767.37706,1.83248
5766.34736,1.83294
5765.31765,1.83354
5764.28795,1.83424
5763.25824,1.83495
5762.22854,1.83550
5761.19883,1.83580
5760.16913,1.83585
5759.13942,1.83565
5758.10972,1.83526
5757.08001,1.83471
5756.05031,1.83402
5755.02060,1.83310
5753.99090,1.83200
5752.96119,1.83085
5751.93149,1.82974
5750.90178,1.82870
5749.87208,1.82773
5748.84237,1.82686
5747.81267,1.82598
5746.78296,1.82498
5745.75326,1.82386
5744.72355,1.82267
5743.69385,1.82148
5742.66414,1.82030
5741.63444,1.81913
5740.60473,1.81800
5739.57503,1.81689
5738.54532,1.81576
5737.51562,1.81462
5736.48591,1.81354
5735.45621,1.81262
5734.42650,1.81189
5733.39680,1.81135
5732.36710,1.81098
5731.33739,1.81076
5730.30769,1.81067
5729.27798,1.81074
5728.24828,1.81104
5727.21857,1.81164
5726.18887,1.81251
5725.15916,1.81355
5724.12946,1.81464
5723.09975,1.81568
5722.07005,1.81665
5721.04034,1.81761
5720.01064,1.81860
5718.98093,1.81961
5717.95123,1.82059
5716.92152,1.82152
5715.89182,1.82240
5714.86211,1.82319
5713.83241,1.82390
5712.80270,1.82453
5711.77300,1.82511
5710.74329,1.82558
5709.71359,1.82588
5708.68388,1.82601
5707.65418,1.82599
5706.62447,1.82587
5705.59477,1.82565
5704.56506,1.82532
5703.53536,1.82493
5702.50565,1.82454
5701.47595,1.82409
5700.44624,1.82354
5699.41654,1.82293
5698.38683,1.82234
5697.35713,1.82187
5696.32742,1.82158
5695.29772,1.82144
5694.26801,1.82145
5693.23831,1.82162
5692.20860,1.82201
5691.17890,1.82255
5690.14919,1.82319
5689.11949,1.82388
5688.08979,1.82460
5687.06008,1.82527
5686.03038,1.82589
5685.00067,1.82649
5683.97097,1.82708
5682.94126,1.82761
5681.91156,1.82798
5680.88185,1.82816
5679.85215,1.82814
5678.82244,1.82803
5677.79274,1.82787
5676.76303,1.82765
5675.73333,1.82741
5674.70362,1.82721
5673.67392,1.82706
5672.64421,1.82697
5671.61451,1.82695
5670.58480,1.82702
5669.55510,1.82726
5668.52539,1.82774
5667.49569,1.82834
5666.46598,1.82898
5665.43628,1.82960
5664.40657,1.83017
5663.37687,1.83066
5662.34716,1.83103
5661.31746,1.83126
5660.28775,1.83135
5659.25805,1.83122
5658.22834,1.83082
5657.19864,1.83014
5656.16893,1.82919
5655.13923,1.82798
5654.10952,1.82654
5653.07982,1.82487
5652.05011,1.82300
5651.02041,1.82095
5649.99070,1.81873
5648.96100,1.81640
5647.93129,1.81411
5646.90159,1.81197
5645.87188,1.81006
5644.84218,1.80850
5643.81248,1.80732
5642.78277,1.80646
5641.75307,1.80596
5640.72336,1.80582
5639.69366,1.80600
5638.66395,1.80648
5637.63425,1.80728
5636.60454,1.80839
5635.57484,1.80979
5634.54513,1.81138
5633.51543,1.81305
5632.48572,1.81468
5631.45602,1.81618
5630.42631,1.81748
5629.39661,1.81857
5628.36690,1.81945
5627.33720,1.82010
5626.30749,1.82046
5625.27779,1.82049
5624.24808,1.82029
5623.21838,1.81996
5622.18867,1.81949
5621.15897,1.81895
5620.12926,1.81845
5619.09956,1.81801
5618.06985,1.81764
5617.04015,1.81733
5616.01044,1.81708
5614.98074,1.81692
5613.95103,1.81691
5612.92133,1.81707
5611.89162,1.81734
5610.86192,1.81762
5609.83221,1.81784
5608.80251,1.81799
5607.77280,1.81803
5606.74310,1.81795
5605.71339,1.81770
5604.68369,1.81730
5603.65398,1.81683
5602.62428,1.81629
5601.59457,1.81563
5600.56487,1.81488
5599.53517,1.81415
5598.50546,1.81354
5597.47576,1.81304
5596.44605,1.81271
5595.41635,1.81256
5594.38664,1.81260
5593.35694,1.81284
5592.32723,1.81330
5591.29753,1.81398
5590.26782,1.81482
5589.23812,1.81580
5588.20841,1.81685
5587.17871,1.81790
5586.14900,1.81894
5585.11930,1.82002
5584.08959,1.82109
5583.05989,1.82204
5582.03018,1.82278
5581.00048,1.82332
5579.97077,1.82375
5578.94107,1.82410
5577.91136,1.82431
5576.88166,1.82433
5575.85195,1.82422
5574.82225,1.82402
5573.79254,1.82374
5572.76284,1.82326
5571.73313,1.82255
5570.70343,1.82162
5569.67372,1.82056
5568.64402,1.81943
5567.61431,1.81824
5566.58461,1.81699
5565.55490,1.81570
5564.52520,1.81450
5563.49549,1.81344
5562.46579,1.81258
5561.43608,1.81193
5560.40638,1.81152
5559.37667,1.81127
5558.34697,1.81111
5557.31726,1.81109
5556.28756,1.81127
5555.25785,1.81171
5554.22815,1.81239
5553.19845,1.81331
5552.16874,1.81445
5551.13904,1.81573
5550.10933,1.81710
5549.07963,1.81843
5548.04992,1.81962
5547.02022,1.82065
5545.99051,1.82155
5544.96081,1.82238
5543.93110,1.82319
5542.90140,1.82395
5541.87169,1.82469
5540.84199,1.82545
5539.81228,1.82620
5538.78258,1.82683
5537.75287,1.82728
5536.72317,1.82752
5535.69346,1.82749
5534.66376,1.82717
5533.63405,1.82656
5532.60435,1.82580
5531.57464,1.82503
5530.54494,1.82436
5529.51523,1.82378
5528.48553,1.82324
5527.45582,1.82263
5526.42612,1.82190
5525.39641,1.82110
5524.36671,1.82030
5523.33700,1.81951
5522.30730,1.81878
5521.27759,1.81819
5520.24789,1.81781
5519.21818,1.81768
5518.18848,1.81775
5517.15877,1.81795
5516.12907,1.81821
5515.09936,1.81845
5514.06966,1.81860
5513.03995,1.81865
5512.01025,1.81856
5510.98054,1.81831
5509.95084,1.81793
5508.92114,1.81751
5507.89143,1.81709
5506.86173,1.81674
5505.83202,1.81638
5504.80232,1.81586
5503.77261,1.81507
5502.74291,1.81408
5501.71320,1.81304
5500.68350,1.81209
5499.65379,1.81126
5498.62409,1.81054
5497.59438,1.81001
5496.56468,1.80973
5495.53497,1.80972
5494.50527,1.80991
5493.47556,1.81024
5492.44586,1.81066
5491.41615,1.81119
5490.38645,1.81184
5489.35674,1.81254
5488.32704,1.81326
5487.29733,1.81396
5486.26763,1.81461
5485.23792,1.81519
5484.20822,1.81568
5483.17851,1.81605
5482.14881,1.81626
5481.11910,1.81628
5480.08940,1.81611
5479.05969,1.81584
5478.02999,1.81563
5477.00028,1.81553
5475.97058,1.81552
5474.94087,1.81551
5473.91117,1.81553
5472.88146,1.81558
5471.85176,1.81565
5470.82205,1.81566
5469.79235,1.81554
5468.76264,1.81522
5467.73294,1.81477
5466.70323,1.81426
5465.67353,1.81368
5464.64383,1.81297
5463.61412,1.81218
5462.58442,1.81135
5461.55471,1.81051
5460.52501,1.80965
5459.49530,1.80873
5458.46560,1.80774
5457.43589,1.80677
5456.40619,1.80593
5455.37648,1.80528
5454.34678,1.80486
5453.31707,1.80468
5452.28737,1.80468
5451.25766,1.80484
5450.22796,1.80516
5449.19825,1.80566
5448.16855,1.80634
5447.13884,1.80715
5446.10914,1.80799
5445.07943,1.80876
5444.04973,1.80948
5443.02002,1.81021
5441.99032,1.81094
5440.96061,1.81167
5439.93091,1.81243
5438.90120,1.81323
5437.87150,1.81398
5436.84179,1.81454
5435.81209,1.81481
5434.78238,1.81475
5433.75268,1.81445
5432.72297,1.81399
5431.69327,1.81346
5430.66356,1.81288
5429.63386,1.81225
5428.60415,1.81159
5427.57445,1.81093
5426.54474,1.81034
5425.51504,1.80986
5424.48533,1.80952
5423.45563,1.80931
5422.42592,1.80915
5421.39622,1.80900
5420.36652,1.80885
5419.33681,1.80874
5418.30711,1.80865
5417.27740,1.80859
5416.24770,1.80860
5415.21799,1.80864
5414.18829,1.80858
5413.15858,1.80827
5412.12888,1.80778
5411.09917,1.80720
5410.06947,1.80660
5409.03976,1.80604
5408.01006,1.80556
5406.98035,1.80521
5405.95065,1.80495
5404.92094,1.80474
5403.89124,1.80458
5402.86153,1.80452
5401.83183,1.80459
5400.80212,1.80480
5399.77242,1.80516
5398.74271,1.80570
5397.71301,1.80637
5396.68330,1.80719
5395.65360,1.80813
5394.62389,1.80915
5393.59419,1.81019
5392.56448,1.81125
5391.53478,1.81231
5390.50507,1.81331
5389.47537,1.81416
5388.44566,1.81488
5387.41596,1.81557
5386.38625,1.81623
5385.35655,1.81680
5384.32684,1.81729
5383.29714,1.81769
5382.26743,1.81793
5381.23773,1.81792
5380.20802,1.81762
5379.17832,1.81706
5378.14861,1.81631
5377.11891,1.81543
5376.08920,1.81451
5375.05950,1.81366
5374.02980,1.81290
5373.00009,1.81222
5371.97039,1.81157
5370.94068,1.81096
5369.91098,1.81037
5368.88127,1.80981
5367.85157,1.80930
5366.82186,1.80888
5365.79216,1.80853
5364.76245,1.80826
5363.73275,1.80805
5362.70304,1.80788
5361.67334,1.80772
5360.64363,1.80759
5359.61393,1.80746
5358.58422,1.80727
5357.55452,1.80692
5356.52481,1.80634
5355.49511,1.80563
5354.46540,1.80492
5353.43570,1.80434
5352.40599,1.80394
5351.37629,1.80368
5350.34658,1.80355
5349.31688,1.80356
5348.28717,1.80367
5347.25747,1.80383
5346.22776,1.80408
5345.19806,1.80446
5344.16835,1.80495
5343.13865,1.80559
5342.10894,1.80637
5341.07924,1.80724
5340.04953,1.80806
5339.01983,1.80871
5337.99012,1.80919
5336.96042,1.80958
5335.93071,1.80988
5334.90101,1.81004
5333.87130,1.81000
5332.84160,1.80978
5331.81189,1.80953
5330.78219,1.80939
5329.75249,1.80936
5328.72278,1.80939
5327.69308,1.80938
5326.66337,1.80936
5325.63367,1.80941
5324.60396,1.80955
5323.57426,1.80973
5322.54455,1.81000
5321.51485,1.81043
5320.48514,1.81100
5319.45544,1.81161
5318.42573,1.81215
5317.39603,1.81253
5316.36632,1.81266
5315.33662,1.81257
5314.30691,1.81234
5313.27721,1.81210
5312.24750,1.81196
5311.21780,1.81192
5310.18809,1.81195
5309.15839,1.81205
5308.12868,1.81226
5307.09898,1.81263
5306.06927,1.81311
5305.03957,1.81358
5304.00986,1.81398
5302.98016,1.81435
5301.95045,1.81469
5300.92075,1.81498
5299.89104,1.81524
5298.86134,1.81550
5297.83163,1.81578
5296.80193,1.81593
5295.77222,1.81582
5294.74252,1.81541
5293.71281,1.81472
5292.68311,1.81384
5291.65340,1.81295
5290.62370,1.81218
5289.59399,1.81164
5288.56429,1.81147
5287.53458,1.81172
5286.50488,1.81236
5285.47518,1.81334
5284.44547,1.81466
5283.41577,1.81631
5282.38606,1.81821
5281.35636,1.82020
5280.32665,1.82215
5279.29695,1.82401
5278.26724,1.82578
5277.23754,1.82741
5276.20783,1.82889
5275.17813,1.83018
5274.14842,1.83124
5273.11872,1.83198
5272.08901,1.83241
5271.05931,1.83261
5270.02960,1.83264
5268.99990,1.83253
5267.97019,1.83235
5266.94049,1.83219
5265.91078,1.83217
5264.88108,1.83240
5263.85137,1.83298
5262.82167,1.83388
5261.79196,1.83506
5260.76226,1.83651
5259.73255,1.83820
5258.70285,1.84000
5257.67314,1.84173
5256.64344,1.84333
5255.61373,1.84486
5254.58403,1.84637
5253.55432,1.84784
5252.52462,1.84915
5251.49491,1.85019
5250.46521,1.85092
5249.43550,1.85138
5248.40580,1.85162
5247.37609,1.85167
5246.34639,1.85153
5245.31668,1.85125
5244.28698,1.85092
5243.25727,1.85061
5242.22757,1.85042
5241.19786,1.85045
5240.16816,1.85069
5239.13846,1.85109
5238.10875,1.85160
5237.07905,1.85220
5236.04934,1.85293
5235.01964,1.85374
5233.98993,1.85457
5232.96023,1.85545
5231.93052,1.85653
5230.90082,1.85782
5229.87111,1.85916
5228.84141,1.86036
5227.81170,1.86128
5226.78200,1.86187
5225.75229,1.86215
5224.72259,1.86216
5223.69288,1.86197
5222.66318,1.86169
5221.63347,1.86148
5220.60377,1.86141
5219.57406,1.86148
5218.54436,1.86168
5217.51465,1.86204
5216.48495,1.86253
5215.45524,1.86310
5214.42554,1.86376
5213.39583,1.86455
5212.36613,1.86550
5211.33642,1.86666
5210.30672,1.86800
5209.27701,1.86951
5208.24731,1.87122
5207.21760,1.87306
5206.18790,1.87475
5205.15819,1.87614
5204.12849,1.87718
5203.09878,1.87786
5202.06908,1.87824
5201.03937,1.87838
5200.00967,1.87835
5198.97996,1.87826
5197.95026,1.87821
5196.92055,1.87825
5195.89085,1.87834
5194.86115,1.87851
5193.83144,1.87885
5192.80174,1.87938
5191.77203,1.88003
5190.74233,1.88077
5189.71262,1.88162
5188.68292,1.88257
5187.65321,1.88357
5186.62351,1.88462
5185.59380,1.88575
5184.56410,1.88691
5183.53439,1.88800
5182.50469,1.88888
5181.47498,1.88948
5180.44528,1.88983
5179.41557,1.88997
5178.38587,1.88988
5177.35616,1.88961
5176.32646,1.88915
5175.29675,1.88850
5174.26705,1.88774
5173.23734,1.88695
5172.20764,1.88618
5171.17793,1.88548
5170.14823,1.88489
5169.11852,1.88446
5168.08882,1.88414
5167.05911,1.88388
5166.02941,1.88372
5164.99970,1.88373
5163.97000,1.88391
5162.94029,1.88425
5161.91059,1.88479
5160.88088,1.88549
5159.85118,1.88624
5158.82147,1.88700
5157.79177,1.88778
5156.76206,1.88860
5155.73236,1.88933
5154.70265,1.88988
5153.67295,1.89016
5152.64324,1.89015
5151.61354,1.88985
5150.58384,1.88928
5149.55413,1.88850
5148.52443,1.88759
5147.49472,1.88656
5146.46502,1.88544
5145.43531,1.88432
5144.40561,1.88321
5143.37590,1.88215
5142.34620,1.88116
5141.31649,1.88035
5140.28679,1.87975
5139.25708,1.87931
5138.22738,1.87895
5137.19767,1.87865
5136.16797,1.87839
5135.13826,1.87821
5134.10856,1.87817
5133.07885,1.87826
5132.04915,1.87839
5131.01944,1.87841
5129.98974,1.87829
5128.96003,1.87808
5127.93033,1.87786
5126.90062,1.87767
5125.87092,1.87752
5124.84121,1.87742
5123.81151,1.87738
5122.78180,1.87738
5121.75210,1.87749
5120.72239,1.87772
5119.69269,1.87805
5118.66298,1.87855
5117.63328,1.87927
5116.60357,1.88021
5115.57387,1.88124
5114.54416,1.88221
5113.51446,1.88311
5112.48475,1.88402
5111.45505,1.88497
5110.42534,1.88595
5109.39564,1.88688
5108.36593,1.88773
5107.33623,1.88842
5106.30653,1.88892
5105.27682,1.88930
5104.24712,1.88959
5103.21741,1.88975
5102.18771,1.88974
5101.15800,1.88957
5100.12830,1.88921
5099.09859,1.88866
5098.06889,1.88797
5097.03918,1.88717
5096.00948,1.88625
5094.97977,1.88524
5093.95007,1.88426
5092.92036,1.88332
5091.89066,1.88231
5090.86095,1.88117
5089.83125,1.87997
5088.80154,1.87885
5087.77184,1.87783
5086.74213,1.87682
5085.71243,1.87579
5084.68272,1.87476
5083.65302,1.87380
5082.62331,1.87294
5081.59361,1.87224
5080.56390,1.87174
5079.53420,1.87143
5078.50449,1.87134
5077.47479,1.87149
5076.44508,1.87182
5075.41538,1.87222
5074.38567,1.87263
5073.35597,1.87306
5072.32626,1.87345
5071.29656,1.87372
5070.26685,1.87387
5069.23715,1.87393
5068.20744,1.87387
5067.17774,1.87363
5066.14803,1.87326
5065.11833,1.87281
5064.08862,1.87227
5063.05892,1.87160
5062.02921,1.87080
5060.99951,1.86998
5059.96981,1.86921
5058.94010,1.86856
5057.91040,1.86806
5056.88069,1.86774
5055.85099,1.86759
5054.82128,1.86761
5053.79158,1.86779
5052.76187,1.86807
5051.73217,1.86832
5050.70246,1.86850
5049.67276,1.86863
5048.64305,1.86867
5047.61335,1.86860
5046.58364,1.86843
5045.55394,1.86819
5044.52423,1.86786
5043.49453,1.86743
5042.46482,1.86692
5041.43512,1.86644
5040.40541,1.86603
5039.37571,1.86570
5038.34600,1.86546
5037.31630,1.86533
5036.28659,1.86533
5035.25689,1.86544
5034.22718,1.86564
5033.19748,1.86587
5032.16777,1.86613
5031.13807,1.86642
5030.10836,1.86676
5029.07866,1.86715
5028.04895,1.86754
5027.01925,1.86785
5025.98954,1.86806
5024.95984,1.86816
5023.93013,1.86818
5022.90043,1.86811
5021.87072,1.86797
5020.84102,1.86768
5019.81131,1.86719
5018.78161,1.86656
5017.75190,1.86588
5016.72220,1.86521
5015.69250,1.86450
5014.66279,1.86370
5013.63309,1.86282
5012.60338,1.86196
5011.57368,1.86113
5010.54397,1.86035
5009.51427,1.85960
5008.48456,1.85891
5007.45486,1.85833
5006.42515,1.85791
5005.39545,1.85766
5004.36574,1.85757
5003.33604,1.85761
5002.30633,1.85776
5001.27663,1.85800
5000.24692,1.85837
4999.21722,1.85888
4998.18751,1.85946
4997.15781,1.86007
4996.12810,1.86062
4995.09840,1.86107
4994.06869,1.86141
4993.03899,1.86161
4992.00928,1.86164
4990.97958,1.86149
4989.94987,1.86117
4988.92017,1.86078
4987.89046,1.86036
4986.86076,1.85988
4985.83105,1.85930
4984.80135,1.85867
4983.77164,1.85799
4982.74194,1.85731
4981.71223,1.85667
4980.68253,1.85609
4979.65282,1.85555
4978.62312,1.85506
4977.59341,1.85468
4976.56371,1.85440
4975.53400,1.85426
4974.50430,1.85424
4973.47459,1.85435
4972.44489,1.85461
4971.41519,1.85496
4970.38548,1.85532
4969.35578,1.85563
4968.32607,1.85589
4967.29637,1.85611
4966.26666,1.85628
4965.23696,1.85641
4964.20725,1.85647
4963.17755,1.85647
4962.14784,1.85643
4961.11814,1.85639
4960.08843,1.85632
4959.05873,1.85619
4958.02902,1.85599
4956.99932,1.85575
4955.96961,1.85551
4954.93991,1.85535
4953.91020,1.85534
4952.88050,1.85551
4951.85079,1.85581
4950.82109,1.85623
4949.79138,1.85682
4948.76168,1.85759
4947.73197,1.85845
4946.70227,1.85926
4945.67256,1.85991
4944.64286,1.86040
4943.61315,1.86075
4942.58345,1.86096
4941.55374,1.86100
4940.52404,1.86086
4939.49433,1.86060
4938.46463,1.86025
4937.43492,1.85976
4936.40522,1.85907
4935.37551,1.85815
4934.34581,1.85705
4933.31610,1.85587
4932.28640,1.85474
4931.25669,1.85377
4930.22699,1.85300
4929.19728,1.85239
4928.16758,1.85183
4927.13788,1.85129
4926.10817,1.85083
4925.07847,1.85052
4924.04876,1.85034
4923.01906,1.85022
4921.98935,1.85017
4920.95965,1.85024
4919.92994,1.85051
4918.90024,1.85100
4917.87053,1.85166
4916.84083,1.85248
4915.81112,1.85346
4914.78142,1.85459
4913.75171,1.85576
4912.72201,1.85689
4911.69230,1.85796
4910.66260,1.85899
4909.63289,1.86003
4908.60319,1.86109
4907.57348,1.86213
4906.54378,1.86307
4905.51407,1.86384
4904.48437,1.86432
4903.45466,1.86446
4902.42496,1.86431
4901.39525,1.86398
4900.36555,1.86351
4899.33584,1.86287
4898.30614,1.86207
4897.27643,1.86120
4896.24673,1.86032
4895.21702,1.85945
4894.18732,1.85857
4893.15761,1.85772
4892.12791,1.85701
4891.09820,1.85647
4890.06850,1.85610
4889.03879,1.85589
4888.00909,1.85586
4886.97938,1.85602
4885.94968,1.85639
4884.91997,1.85695
4883.89027,1.85765
4882.86056,1.85843
4881.83086,1.85925
4880.80116,1.86006
4879.77145,1.86077
4878.74175,1.86134
4877.71204,1.86180
4876.68234,1.86217
4875.65263,1.86238
4874.62293,1.86238
4873.59322,1.86221
4872.56352,1.86188
4871.53381,1.86142
4870.50411,1.86086
4869.47440,1.86027
4868.44470,1.85976
4867.41499,1.85939
4866.38529,1.85915
4865.35558,1.85906
4864.32588,1.85915
4863.29617,1.85940
4862.26647,1.85979
4861.23676,1.86033
4860.20706,1.86100
4859.17735,1.86177
4858.14765,1.86259
4857.11794,1.86343
4856.08824,1.86419
4855.05853,1.86484
4854.02883,1.86540
4852.99912,1.86585
4851.96942,1.86618
4850.93971,1.86635
4849.91001,1.86640
4848.88030,1.86637
4847.85060,1.86628
4846.82089,1.86618
4845.79119,1.86611
4844.76148,1.86606
4843.73178,1.86605
4842.70207,1.86606
4841.67237,1.86607
4840.64266,1.86608
4839.61296,1.86606
4838.58325,1.86598
4837.55355,1.86587
4836.52385,1.86575
4835.49414,1.86561
4834.46444,1.86542
4833.43473,1.86516
4832.40503,1.86484
4831.37532,1.86450
4830.34562,1.86416
4829.31591,1.86382
4828.28621,1.86348
4827.25650,1.86320
4826.22680,1.86302
4825.19709,1.86299
4824.16739,1.86312
4823.13768,1.86340
4822.10798,1.86381
4821.07827,1.86430
4820.04857,1.86488
4819.01886,1.86554
4817.98916,1.86626
4816.95945,1.86694
4815.92975,1.86757
4814.90004,1.86812
4813.87034,1.86863
4812.84063,1.86913
4811.81093,1.86959
4810.78122,1.86995
4809.75152,1.87019
4808.72181,1.87030
4807.69211,1.87031
4806.66240,1.87024
4805.63270,1.87007
4804.60299,1.86979
4803.57329,1.86948
4802.54358,1.86917
4801.51388,1.86890
4800.48417,1.86868
4799.45447,1.86854
4798.42476,1.86850
4797.39506,1.86856
4796.36535,1.86872
4795.33565,1.86900
4794.30594,1.86939
4793.27624,1.86979
4792.24654,1.87019
4791.21683,1.87062
4790.18713,1.87111
4789.15742,1.87163
4788.12772,1.87213
4787.09801,1.87253
4786.06831,1.87274
4785.03860,1.87275
4784.00890,1.87258
4782.97919,1.87226
4781.94949,1.87180
4780.91978,1.87122
4779.89008,1.87054
4778.86037,1.86980
4777.83067,1.86903
4776.80096,1.86827
4775.77126,1.86757
4774.74155,1.86699
4773.71185,1.86656
4772.68214,1.86628
4771.65244,1.86612
4770.62273,1.86603
4769.59303,1.86601
4768.56332,1.86605
4767.53362,1.86622
4766.50391,1.86654
4765.47421,1.86694
4764.44450,1.86737
4763.41480,1.86778
4762.38509,1.86815
4761.35539,1.86847
4760.32568,1.86877
4759.29598,1.86906
4758.26627,1.86936
4757.23657,1.86967
4756.20686,1.86994
4755.17716,1.87014
4754.14745,1.87030
4753.11775,1.87044
4752.08804,1.87059
4751.05834,1.87078
4750.02863,1.87101
4748.99893,1.87128
4747.96923,1.87151
4746.93952,1.87164
4745.90982,1.87163
4744.88011,1.87156
4743.85041,1.87148
4742.82070,1.87143
4741.79100,1.87141
4740.76129,1.87134
4739.73159,1.87122
4738.70188,1.87107
4737.67218,1.87096
4736.64247,1.87090
4735.61277,1.87091
4734.58306,1.87101
4733.55336,1.87116
4732.52365,1.87132
4731.49395,1.87147
4730.46424,1.87162
4729.43454,1.87182
4728.40483,1.87206
4727.37513,1.87236
4726.34542,1.87271
4725.31572,1.87307
4724.28601,1.87337
4723.25631,1.87355
4722.22660,1.87358
4721.19690,1.87350
4720.16719,1.87340
4719.13749,1.87329
4718.10778,1.87314
4717.07808,1.87287
4716.04837,1.87244
4715.01867,1.87193
4713.98896,1.87143
4712.95926,1.87099
4711.92955,1.87060
4710.89985,1.87025
4709.87014,1.86990
4708.84044,1.86952
4707.81073,1.86912
4706.78103,1.86873
4705.75132,1.86839
4704.72162,1.86813
4703.69191,1.86797
4702.66221,1.86789
4701.63251,1.86787
4700.60280,1.86789
4699.57310,1.86794
4698.54339,1.86802
4697.51369,1.86816
4696.48398,1.86839
4695.45428,1.86868
4694.42457,1.86893
4693.39487,1.86909
4692.36516,1.86917
4691.33546,1.86923
4690.30575,1.86933
4689.27605,1.86944
4688.24634,1.86953
4687.21664,1.86956
4686.18693,1.86950
4685.15723,1.86936
4684.12752,1.86918
4683.09782,1.86901
4682.06811,1.86887
4681.03841,1.86878
4680.00870,1.86873
4678.97900,1.86867
4677.94929,1.86859
4676.91959,1.86854
4675.88988,1.86855
4674.86018,1.86862
4673.83047,1.86872
4672.80077,1.86885
4671.77106,1.86895
4670.74136,1.86899
4669.71165,1.86898
4668.68195,1.86899
4667.65224,1.86906
4666.62254,1.86917
4665.59283,1.86930
4664.56313,1.86942
4663.53342,1.86955
4662.50372,1.86968
4661.47401,1.86984
4660.44431,1.87006
4659.41460,1.87036
4658.38490,1.87073
4657.35520,1.87109
4656.32549,1.87141
4655.29579,1.87163
4654.26608,1.87175
4653.23638,1.87178
4652.20667,1.87174
4651.17697,1.87163
4650.14726,1.87141
4649.11756,1.87110
4648.08785,1.87067
4647.05815,1.87016
4646.02844,1.86960
4644.99874,1.86908
4643.96903,1.86861
4642.93933,1.86819
4641.90962,1.86783
4640.87992,1.86754
4639.85021,1.86735
4638.82051,1.86728
4637.79080,1.86734
4636.76110,1.86754
4635.73139,1.86785
4634.70169,1.86825
4633.67198,1.86870
4632.64228,1.86914
4631.61257,1.86957
4630.58287,1.86997
4629.55316,1.87036
4628.52346,1.87072
4627.49375,1.87105
4626.46405,1.87134
4625.43434,1.87158
4624.40464,1.87172
4623.37493,1.87175
4622.34523,1.87170
4621.31552,1.87161
4620.28582,1.87148
4619.25611,1.87134
4618.22641,1.87118
4617.19670,1.87101
4616.16700,1.87080
4615.13729,1.87057
4614.10759,1.87036
4613.07789,1.87011
4612.04818,1.86978
4611.01848,1.86937
4609.98877,1.86892
4608.95907,1.86848
4607.92936,1.86806
4606.89966,1.86769
4605.86995,1.86734
4604.84025,1.86699
4603.81054,1.86662
4602.78084,1.86625
4601.75113,1.86589
4600.72143,1.86555
4599.69172,1.86521
4598.66202,1.86492
4597.63231,1.86469
4596.60261,1.86457
4595.57290,1.86455
4594.54320,1.86464
4593.51349,1.86478
4592.48379,1.86492
4591.45408,1.86510
4590.42438,1.86533
4589.39467,1.86554
4588.36497,1.86567
4587.33526,1.86575
4586.30556,1.86582
4585.27585,1.86590
4584.24615,1.86601
4583.21644,1.86611
4582.18674,1.86613
4581.15703,1.86605
4580.12733,1.86591
4579.09762,1.86571
4578.06792,1.86550
4577.03821,1.86530
4576.00851,1.86509
4574.97880,1.86489
4573.94910,1.86472
4572.91939,1.86460
4571.88969,1.86453
4570.85998,1.86450
4569.83028,1.86447
4568.80058,1.86444
4567.77087,1.86442
4566.74117,1.86440
4565.71146,1.86435
4564.68176,1.86425
4563.65205,1.86411
4562.62235,1.86398
4561.59264,1.86384
4560.56294,1.86369
4559.53323,1.86352
4558.50353,1.86335
4557.47382,1.86317
4556.44412,1.86303
4555.41441,1.86294
4554.38471,1.86288
4553.35500,1.86285
4552.32530,1.86281
4551.29559,1.86279
4550.26589,1.86278
4549.23618,1.86278
4548.20648,1.86279
4547.17677,1.86282
4546.14707,1.86288
4545.11736,1.86296
4544.08766,1.86306
4543.05795,1.86315
4542.02825,1.86324
4540.99854,1.86334
4539.96884,1.86346
4538.93913,1.86363
4537.90943,1.86381
4536.87972,1.86397
4535.85002,1.86410
4534.82031,1.86422
4533.79061,1.86433
4532.76090,1.86444
4531.73120,1.86454
4530.70149,1.86462
4529.67179,1.86468
4528.64208,1.86467
4527.61238,1.86458
4526.58267,1.86444
4525.55297,1.86428
4524.52326,1.86411
4523.49356,1.86398
4522.46386,1.86392
4521.43415,1.86392
4520.40445,1.86395
4519.37474,1.86400
4518.34504,1.86410
4517.31533,1.86427
4516.28563,1.86453
4515.25592,1.86488
4514.22622,1.86526
4513.19651,1.86561
4512.16681,1.86589
4511.13710,1.86610
4510.10740,1.86626
4509.07769,1.86642
4508.04799,1.86658
4507.01828,1.86675
4505.98858,1.86695
4504.95887,1.86714
4503.92917,1.86729
4502.89946,1.86743
4501.86976,1.86759
4500.84005,1.86778
4499.81035,1.86801
4498.78064,1.86825
4497.75094,1.86849
4496.72123,1.86870
4495.69153,1.86890
4494.66182,1.86910
4493.63212,1.86932
4492.60241,1.86959
4491.57271,1.86989
4490.54300,1.87016
4489.51330,1.87036
4488.48359,1.87049
4487.45389,1.87060
4486.42418,1.87069
4485.39448,1.87083
4484.36477,1.87103
4483.33507,1.87126
4482.30536,1.87150
4481.27566,1.87175
4480.24595,1.87200
4479.21625,1.87223
4478.18655,1.87244
4477.15684,1.87263
4476.12714,1.87277
4475.09743,1.87288
4474.06773,1.87297
4473.03802,1.87305
4472.00832,1.87313
4470.97861,1.87323
4469.94891,1.87337
4468.91920,1.87361
4467.88950,1.87396
4466.85979,1.87445
4465.83009,1.87506
4464.80038,1.87579
4463.77068,1.87666
4462.74097,1.87765
4461.71127,1.87875
4460.68156,1.87992
4459.65186,1.88112
4458.62215,1.88233
4457.59245,1.88356
4456.56274,1.88481
4455.53304,1.88605
4454.50333,1.88725
4453.47363,1.88836
4452.44392,1.88938
4451.41422,1.89029
4450.38451,1.89110
4449.35481,1.89181
4448.32510,1.89243
4447.29540,1.89296
4446.26569,1.89345
4445.23599,1.89395
4444.20628,1.89453
4443.17658,1.89521
4442.14687,1.89595
4441.11717,1.89675
4440.08746,1.89760
4439.05776,1.89853
4438.02805,1.89952
4436.99835,1.90057
4435.96864,1.90169
4434.93894,1.90292
4433.90924,1.90427
4432.87953,1.90574
4431.84983,1.90729
4430.82012,1.90887
4429.79042,1.91045
4428.76071,1.91201
4427.73101,1.91353
4426.70130,1.91498
4425.67160,1.91636
4424.64189,1.91768
4423.61219,1.91894
4422.58248,1.92014
4421.55278,1.92130
4420.52307,1.92241
4419.49337,1.92347
4418.46366,1.92446
4417.43396,1.92537
4416.40425,1.92625
4415.37455,1.92713
4414.34484,1.92808
4413.31514,1.92911
4412.28543,1.93023
4411.25573,1.93147
4410.22602,1.93285
4409.19632,1.93435
4408.16661,1.93592
4407.13691,1.93753
4406.10720,1.93915
4405.07750,1.94080
4404.04779,1.94244
4403.01809,1.94406
4401.98838,1.94564
4400.95868,1.94715
4399.92897,1.94855
4398.89927,1.94981
4397.86956,1.95092
4396.83986,1.95188
4395.81015,1.95270
4394.78045,1.95338
4393.75074,1.95397
4392.72104,1.95451
4391.69133,1.95505
4390.66163,1.95566
4389.63193,1.95637
4388.60222,1.95715
4387.57252,1.95799
4386.54281,1.95894
4385.51311,1.95997
4384.48340,1.96107
4383.45370,1.96223
4382.42399,1.96342
4381.39429,1.96468
4380.36458,1.96601
4379.33488,1.96742
4378.30517,1.96888
4377.27547,1.97036
4376.24576,1.97184
4375.21606,1.97331
4374.18635,1.97480
4373.15665,1.97630
4372.12694,1.97778
4371.09724,1.97924
4370.06753,1.98066
4369.03783,1.98204
4368.00812,1.98343
4366.97842,1.98486
4365.94871,1.98634
4364.91901,1.98781
4363.88930,1.98927
4362.85960,1.99071
4361.82989,1.99214
4360.80019,1.99353
4359.77048,1.99491
4358.74078,1.99632
4357.71107,1.99779
4356.68137,1.99935
4355.65166,2.00101
4354.62196,2.00276
4353.59225,2.00460
4352.56255,2.00650
4351.53284,2.00843
4350.50314,2.01037
4349.47343,2.01228
4348.44373,2.01408
4347.41402,2.01573
4346.38432,2.01722
4345.35461,2.01856
4344.32491,2.01975
4343.29521,2.02084
4342.26550,2.02180
4341.23580,2.02260
4340.20609,2.02319
4339.17639,2.02361
4338.14668,2.02388
4337.11698,2.02405
4336.08727,2.02418
4335.05757,2.02433
4334.02786,2.02455
4332.99816,2.02484
4331.96845,2.02518
4330.93875,2.02554
4329.90904,2.02590
4328.87934,2.02625
4327.84963,2.02650
4326.81993,2.02660
4325.79022,2.02654
4324.76052,2.02626
4323.73081,2.02570
4322.70111,2.02484
4321.67140,2.02368
4320.64170,2.02222
4319.61199,2.02044
4318.58229,2.01837
4317.55258,2.01599
4316.52288,2.01334
4315.49317,2.01050
4314.46347,2.00759
4313.43376,2.00470
4312.40406,2.00188
4311.37435,1.99919
4310.34465,1.99668
4309.31494,1.99439
4308.28524,1.99235
4307.25553,1.99056
4306.22583,1.98901
4305.19612,1.98773
4304.16642,1.98673
4303.13671,1.98598
4302.10701,1.98546
4301.07730,1.98516
4300.04760,1.98499
4299.01790,1.98490
4297.98819,1.98488
4296.95849,1.98494
4295.92878,1.98506
4294.89908,1.98525
4293.86937,1.98549
4292.83967,1.98581
4291.80996,1.98622
4290.78026,1.98675
4289.75055,1.98738
4288.72085,1.98809
4287.69114,1.98884
4286.66144,1.98962
4285.63173,1.99045
4284.60203,1.99135
4283.57232,1.99230
4282.54262,1.99327
4281.51291,1.99427
4280.48321,1.99531
4279.45350,1.99640
4278.42380,1.99749
4277.39409,1.99855
4276.36439,1.99955
4275.33468,2.00048
4274.30498,2.00134
4273.27527,2.00218
4272.24557,2.00306
4271.21586,2.00401
4270.18616,2.00504
4269.15645,2.00612
4268.12675,2.00727
4267.09704,2.00846
4266.06734,2.00969
4265.03763,2.01092
4264.00793,2.01216
4262.97822,2.01341
4261.94852,2.01461
4260.91881,2.01577
4259.88911,2.01684
4258.85940,2.01777
4257.82970,2.01853
4256.79999,2.01905
4255.77029,2.01932
4254.74059,2.01931
4253.71088,2.01900
4252.68118,2.01836
4251.65147,2.01742
4250.62177,2.01620
4249.59206,2.01474
4248.56236,2.01312
4247.53265,2.01138
4246.50295,2.00955
4245.47324,2.00764
4244.44354,2.00567
4243.41383,2.00372
4242.38413,2.00182
4241.35442,2.00001
4240.32472,1.99834
4239.29501,1.99684
4238.26531,1.99551
4237.23560,1.99432
4236.20590,1.99328
4235.17619,1.99239
4234.14649,1.99164
4233.11678,1.99101
4232.08708,1.99052
4231.05737,1.99016
4230.02767,1.98995
4228.99796,1.98985
4227.96826,1.98988
4226.93855,1.99001
4225.90885,1.99022
4224.87914,1.99048
4223.84944,1.99075
4222.81973,1.99101
4221.79003,1.99122
4220.76032,1.99137
4219.73062,1.99147
4218.70091,1.99153
4217.67121,1.99153
4216.64150,1.99147
4215.61180,1.99136
4214.58209,1.99119
4213.55239,1.99096
4212.52268,1.99072
4211.49298,1.99050
4210.46328,1.99032
4209.43357,1.99018
4208.40387,1.99010
4207.37416,1.99012
4206.34446,1.99025
4205.31475,1.99051
4204.28505,1.99085
4203.25534,1.99128
4202.22564,1.99175
4201.19593,1.99222
4200.16623,1.99267
4199.13652,1.99310
4198.10682,1.99349
4197.07711,1.99383
4196.04741,1.99411
4195.01770,1.99434
4193.98800,1.99454
4192.95829,1.99469
4191.92859,1.99480
4190.89888,1.99487
4189.86918,1.99488
4188.83947,1.99488
4187.80977,1.99489
4186.78006,1.99488
4185.75036,1.99487
4184.72065,1.99486
4183.69095,1.99491
4182.66124,1.99503
4181.63154,1.99522
4180.60183,1.99542
4179.57213,1.99562
4178.54242,1.99579
4177.51272,1.99596
4176.48301,1.99614
4175.45331,1.99635
4174.42360,1.99658
4173.39390,1.99680
4172.36419,1.99700
4171.33449,1.99719
4170.30478,1.99739
4169.27508,1.99760
4168.24537,1.99780
4167.21567,1.99796
4166.18596,1.99803
4165.15626,1.99801
4164.12656,1.99789
4163.09685,1.99769
4162.06715,1.99741
4161.03744,1.99709
4160.00774,1.99675
4158.97803,1.99641
4157.94833,1.99607
4156.91862,1.99567
4155.88892,1.99520
4154.85921,1.99468
4153.82951,1.99416
4152.79980,1.99367
4151.77010,1.99324
4150.74039,1.99288
4149.71069,1.99259
4148.68098,1.99237
4147.65128,1.99221
4146.62157,1.99214
4145.59187,1.99216
4144.56216,1.99228
4143.53246,1.99248
4142.50275,1.99271
4141.47305,1.99292
4140.44334,1.99311
4139.41364,1.99330
4138.38393,1.99350
4137.35423,1.99370
4136.32452,1.99389
4135.29482,1.99408
4134.26511,1.99425
4133.23541,1.99434
4132.20570,1.99428
4131.17600,1.99410
4130.14629,1.99387
4129.11659,1.99364
4128.08688,1.99343
4127.05718,1.99328
4126.02747,1.99316
4124.99777,1.99309
4123.96806,1.99305
4122.93836,1.99307
4121.90865,1.99316
4120.87895,1.99334
4119.84925,1.99358
4118.81954,1.99386
4117.78984,1.99413
4116.76013,1.99439
4115.73043,1.99465
4114.70072,1.99491
4113.67102,1.99517
4112.64131,1.99539
4111.61161,1.99556
4110.58190,1.99566
4109.55220,1.99567
4108.52249,1.99557
4107.49279,1.99540
4106.46308,1.99521
4105.43338,1.99506
4104.40367,1.99496
4103.37397,1.99489
4102.34426,1.99481
4101.31456,1.99472
4100.28485,1.99463
4099.25515,1.99457
4098.22544,1.99453
4097.19574,1.99450
4096.16603,1.99446
4095.13633,1.99443
4094.10662,1.99438
4093.07692,1.99431
4092.04721,1.99423
4091.01751,1.99413
4089.98780,1.99403
4088.95810,1.99390
4087.92839,1.99377
4086.89869,1.99363
4085.86898,1.99352
4084.83928,1.99342
4083.80957,1.99332
4082.77987,1.99323
4081.75016,1.99316
4080.72046,1.99311
4079.69075,1.99308
4078.66105,1.99306
4077.63134,1.99305
4076.60164,1.99306
4075.57194,1.99312
4074.54223,1.99321
4073.51253,1.99332
4072.48282,1.99343
4071.45312,1.99357
4070.42341,1.99375
4069.39371,1.99394
4068.36400,1.99416
4067.33430,1.99441
4066.30459,1.99473
4065.27489,1.99513
4064.24518,1.99560
4063.21548,1.99613
4062.18577,1.99671
4061.15607,1.99731
4060.12636,1.99790
4059.09666,1.99847
4058.06695,1.99903
4057.03725,1.99956
4056.00754,2.00008
4054.97784,2.00058
4053.94813,2.00108
4052.91843,2.00158
4051.88872,2.00207
4050.85902,2.00252
4049.82931,2.00291
4048.79961,2.00324
4047.76990,2.00351
4046.74020,2.00373
4045.71049,2.00391
4044.68079,2.00407
4043.65108,2.00422
4042.62138,2.00437
4041.59167,2.00452
4040.56197,2.00461
4039.53226,2.00463
4038.50256,2.00459
4037.47285,2.00450
4036.44315,2.00434
4035.41344,2.00411
4034.38374,2.00381
4033.35403,2.00347
4032.32433,2.00310
4031.29463,2.00271
4030.26492,2.00233
4029.23522,2.00196
4028.20551,2.00158
4027.17581,2.00118
4026.14610,2.00075
4025.11640,2.00029
4024.08669,1.99986
4023.05699,1.99945
4022.02728,1.99910
4020.99758,1.99882
4019.96787,1.99861
4018.93817,1.99843
4017.90846,1.99824
4016.87876,1.99801
4015.84905,1.99773
4014.81935,1.99744
4013.78964,1.99718
4012.75994,1.99691
4011.73023,1.99663
4010.70053,1.99637
4009.67082,1.99616
4008.64112,1.99600
4007.61141,1.99588
4006.58171,1.99579
4005.55200,1.99570
4004.52230,1.99560
4003.49259,1.99551
4002.46289,1.99544
4001.43318,1.99543
4000.40348,1.99547
3999.37377,1.99558
3998.34407,1.99574
3997.31436,1.99596
3996.28466,1.99621
3995.25495,1.99647
3994.22525,1.99668
3993.19554,1.99683
3992.16584,1.99694
3991.13613,1.99700
3990.10643,1.99703
3989.07672,1.99702
3988.04702,1.99698
3987.01731,1.99692
3985.98761,1.99686
3984.95791,1.99679
3983.92820,1.99666
3982.89850,1.99645
3981.86879,1.99615
3980.83909,1.99580
3979.80938,1.99544
3978.77968,1.99510
3977.74997,1.99479
3976.72027,1.99449
3975.69056,1.99419
3974.66086,1.99391
3973.63115,1.99366
3972.60145,1.99347
3971.57174,1.99334
3970.54204,1.99325
3969.51233,1.99320
3968.48263,1.99319
3967.45292,1.99323
3966.42322,1.99331
3965.39351,1.99342
3964.36381,1.99357
3963.33410,1.99377
3962.30440,1.99400
3961.27469,1.99423
3960.24499,1.99441
3959.21528,1.99451
3958.18558,1.99454
3957.15587,1.99454
3956.12617,1.99453
3955.09646,1.99450
3954.06676,1.99445
3953.03705,1.99435
3952.00735,1.99424
3950.97764,1.99413
3949.94794,1.99406
3948.91823,1.99406
3947.88853,1.99413
3946.85882,1.99425
3945.82912,1.99437
3944.79941,1.99450
3943.76971,1.99467
3942.74000,1.99487
3941.71030,1.99507
3940.68060,1.99525
3939.65089,1.99540
3938.62119,1.99551
3937.59148,1.99557
3936.56178,1.99557
3935.53207,1.99547
3934.50237,1.99529
3933.47266,1.99507
3932.44296,1.99478
3931.41325,1.99442
3930.38355,1.99401
3929.35384,1.99356
3928.32414,1.99310
3927.29443,1.99265
3926.26473,1.99220
3925.23502,1.99170
3924.20532,1.99116
3923.17561,1.99056
3922.14591,1.98990
3921.11620,1.98921
3920.08650,1.98852
3919.05679,1.98786
3918.02709,1.98723
3916.99738,1.98659
3915.96768,1.98590
3914.93797,1.98518
3913.90827,1.98449
3912.87856,1.98385
3911.84886,1.98327
3910.81915,1.98274
3909.78945,1.98226
3908.75974,1.98181
3907.73004,1.98141
3906.70033,1.98107
3905.67063,1.98081
3904.64092,1.98058
3903.61122,1.98037
3902.58151,1.98019
3901.55181,1.98000
3900.52210,1.97982
3899.49240,1.97967
3898.46269,1.97954
3897.43299,1.97944
3896.40329,1.97939
3895.37358,1.97939
3894.34388,1.97939
3893.31417,1.97932
3892.28447,1.97918
3891.25476,1.97902
3890.22506,1.97889
3889.19535,1.97881
3888.16565,1.97877
3887.13594,1.97878
3886.10624,1.97877
3885.07653,1.97871
3884.04683,1.97861
3883.01712,1.97853
3881.98742,1.97845
3880.95771,1.97836
3879.92801,1.97825
3878.89830,1.97819
3877.86860,1.97816
3876.83889,1.97818
3875.80919,1.97826
3874.77948,1.97838
3873.74978,1.97849
3872.72007,1.97861
3871.69037,1.97875
3870.66066,1.97886
3869.63096,1.97888
3868.60125,1.97884
3867.57155,1.97883
3866.54184,1.97885
3865.51214,1.97886
3864.48243,1.97877
3863.45273,1.97861
3862.42302,1.97836
3861.39332,1.97796
3860.36361,1.97746
3859.33391,1.97698
3858.30420,1.97653
3857.27450,1.97612
3856.24479,1.97573
3855.21509,1.97533
3854.18538,1.97495
3853.15568,1.97462
3852.12598,1.97440
3851.09627,1.97426
3850.06657,1.97418
3849.03686,1.97415
3848.00716,1.97420
3846.97745,1.97433
3845.94775,1.97446
3844.91804,1.97456
3843.88834,1.97465
3842.85863,1.97477
3841.82893,1.97493
3840.79922,1.97505
3839.76952,1.97511
3838.73981,1.97518
3837.71011,1.97527
3836.68040,1.97543
3835.65070,1.97574
3834.62099,1.97621
3833.59129,1.97678
3832.56158,1.97736
3831.53188,1.97788
3830.50217,1.97830
3829.47247,1.97868
3828.44276,1.97908
3827.41306,1.97943
3826.38335,1.97966
3825.35365,1.97974
3824.32394,1.97972
3823.29424,1.97959
3822.26453,1.97932
3821.23483,1.97889
3820.20512,1.97832
3819.17542,1.97776
3818.14571,1.97728
3817.11601,1.97685
3816.08630,1.97643
3815.05660,1.97606
3814.02689,1.97583
3812.99719,1.97578
3811.96748,1.97590
3810.93778,1.97617
3809.90807,1.97652
3808.87837,1.97685
3807.84866,1.97711
3806.81896,1.97727
3805.78926,1.97741
3804.75955,1.97759
3803.72985,1.97772
3802.70014,1.97775
3801.67044,1.97768
3800.64073,1.97757
3799.61103,1.97749
3798.58132,1.97743
3797.55162,1.97739
3796.52191,1.97739
3795.49221,1.97749
3794.46250,1.97771
3793.43280,1.97798
3792.40309,1.97828
3791.37339,1.97864
3790.34368,1.97911
3789.31398,1.97969
3788.28427,1.98031
3787.25457,1.98095
3786.22486,1.98160
3785.19516,1.98222
3784.16545,1.98281
3783.13575,1.98338
3782.10604,1.98400
3781.07634,1.98469
3780.04663,1.98537
3779.01693,1.98601
3777.98722,1.98665
3776.95752,1.98734
3775.92781,1.98802
3774.89811,1.98858
3773.86840,1.98894
3772.83870,1.98914
3771.80899,1.98923
3770.77929,1.98925
3769.74958,1.98919
3768.71988,1.98902
3767.69017,1.98878
3766.66047,1.98854
3765.63076,1.98831
3764.60106,1.98811
3763.57135,1.98799
3762.54165,1.98801
3761.51195,1.98819
3760.48224,1.98853
3759.45254,1.98899
3758.42283,1.98958
3757.39313,1.99036
3756.36342,1.99133
3755.33372,1.99247
3754.30401,1.99377
3753.27431,1.99519
3752.24460,1.99657
3751.21490,1.99773
3750.18519,1.99860
3749.15549,1.99930
3748.12578,1.99995
3747.09608,2.00059
3746.06637,2.00118
3745.03667,2.00164
3744.00696,2.00193
3742.97726,2.00213
3741.94755,2.00230
3740.91785,2.00246
3739.88814,2.00259
3738.85844,2.00272
3737.82873,2.00282
3736.79903,2.00287
3735.76932,2.00281
3734.73962,2.00265
3733.70991,2.00255
3732.68021,2.00262
3731.65050,2.00289
3730.62080,2.00333
3729.59109,2.00391
3728.56139,2.00463
3727.53168,2.00544
3726.50198,2.00633
3725.47227,2.00736
3724.44257,2.00861
3723.41286,2.01007
3722.38316,2.01171
3721.35345,2.01344
3720.32375,2.01524
3719.29404,2.01710
3718.26434,2.01905
3717.23464,2.02107
3716.20493,2.02308
3715.17523,2.02501
3714.14552,2.02681
3713.11582,2.02846
3712.08611,2.02993
3711.05641,2.03129
3710.02670,2.03267
3708.99700,2.03418
3707.96729,2.03584
3706.93759,2.03763
3705.90788,2.03957
3704.87818,2.04164
3703.84847,2.04383
3702.81877,2.04611
3701.78906,2.04846
3700.75936,2.05087
3699.72965,2.05333
3698.69995,2.05579
3697.67024,2.05829
3696.64054,2.06088
3695.61083,2.06358
3694.58113,2.06639
3693.55142,2.06924
3692.52172,2.07211
3691.49201,2.07499
3690.46231,2.07787
3689.43260,2.08076
3688.40290,2.08369
3687.37319,2.08670
3686.34349,2.08986
3685.31378,2.09320
3684.28408,2.09668
3683.25437,2.10027
3682.22467,2.10396
3681.19496,2.10766
3680.16526,2.11130
3679.13555,2.11483
3678.10585,2.11829
3677.07614,2.12171
3676.04644,2.12506
3675.01673,2.12826
3673.98703,2.13133
3672.95733,2.13438
3671.92762,2.13745
3670.89792,2.14050
3669.86821,2.14351
3668.83851,2.14655
3667.80880,2.14970
3666.77910,2.15294
3665.74939,2.15628
3664.71969,2.15970
3663.68998,2.16317
3662.66028,2.16666
3661.63057,2.17015
3660.60087,2.17364
3659.57116,2.17711
3658.54146,2.18053
3657.51175,2.18384
3656.48205,2.18696
3655.45234,2.18986
3654.42264,2.19262
3653.39293,2.19526
3652.36323,2.19774
3651.33352,2.20002
3650.30382,2.20203
3649.27411,2.20383
3648.24441,2.20558
3647.21470,2.20728
3646.18500,2.20901
3645.15529,2.21084
3644.12559,2.21274
3643.09588,2.21465
3642.06618,2.21657
3641.03647,2.21851
3640.00677,2.22041
3638.97706,2.22221
3637.94736,2.22393
3636.91765,2.22561
3635.88795,2.22728
3634.85824,2.22895
3633.82854,2.23060
3632.79883,2.23221
3631.76913,2.23377
3630.73942,2.23528
3629.70972,2.23673
3628.68001,2.23807
3627.65031,2.23934
3626.62061,2.24056
3625.59090,2.24176
3624.56120,2.24296
3623.53149,2.24418
3622.50179,2.24537
3621.47208,2.24653
3620.44238,2.24761
3619.41267,2.24852
3618.38297,2.24931
3617.35326,2.25006
3616.32356,2.25071
3615.29385,2.25120
3614.26415,2.25158
3613.23444,2.25191
3612.20474,2.25221
3611.17503,2.25252
3610.14533,2.25289
3609.11562,2.25333
3608.08592,2.25388
3607.05621,2.25451
3606.02651,2.25518
3604.99680,2.25589
3603.96710,2.25665
3602.93739,2.25748
3601.90769,2.25834
3600.87798,2.25916
3599.84828,2.25987
3598.81857,2.26042
3597.78887,2.26084
3596.75916,2.26118
3595.72946,2.26143
3594.69975,2.26161
3593.67005,2.26176
3592.64034,2.26186
3591.61064,2.26184
3590.58093,2.26169
3589.55123,2.26147
3588.52152,2.26121
3587.49182,2.26096
3586.46211,2.26081
3585.43241,2.26085
3584.40270,2.26110
3583.37300,2.26155
3582.34330,2.26216
3581.31359,2.26291
3580.28389,2.26376
3579.25418,2.26468
3578.22448,2.26563
3577.19477,2.26655
3576.16507,2.26738
3575.13536,2.26807
3574.10566,2.26864
3573.07595,2.26916
3572.04625,2.26969
3571.01654,2.27013
3569.98684,2.27042
3568.95713,2.27051
3567.92743,2.27035
3566.89772,2.26990
3565.86802,2.26926
3564.83831,2.26852
3563.80861,2.26771
3562.77890,2.26686
3561.74920,2.26602
3560.71949,2.26523
3559.68979,2.26446
3558.66008,2.26373
3557.63038,2.26304
3556.60067,2.26242
3555.57097,2.26188
3554.54126,2.26141
3553.51156,2.26096
3552.48185,2.26052
3551.45215,2.26009
3550.42244,2.25973
3549.39274,2.25949
3548.36303,2.25938
3547.33333,2.25934
3546.30362,2.25929
3545.27392,2.25924
3544.24421,2.25926
3543.21451,2.25938
3542.18480,2.25959
3541.15510,2.25990
3540.12539,2.26026
3539.09569,2.26058
3538.06599,2.26087
3537.03628,2.26113
3536.00658,2.26136
3534.97687,2.26158
3533.94717,2.26181
3532.91746,2.26207
3531.88776,2.26234
3530.85805,2.26260
3529.82835,2.26279
3528.79864,2.26290
3527.76894,2.26292
3526.73923,2.26287
3525.70953,2.26273
3524.67982,2.26247
3523.65012,2.26208
3522.62041,2.26159
3521.59071,2.26109
3520.56100,2.26067
3519.53130,2.26034
3518.50159,2.26004
3517.47189,2.25976
3516.44218,2.25950
3515.41248,2.25922
3514.38277,2.25889
3513.35307,2.25860
3512.32336,2.25839
3511.29366,2.25826
3510.26395,2.25817
3509.23425,2.25814
3508.20454,2.25818
3507.17484,2.25828
3506.14513,2.25842
3505.11543,2.25857
3504.08572,2.25873
3503.05602,2.25884
3502.02631,2.25890
3500.99661,2.25889
3499.96690,2.25888
3498.93720,2.25893
3497.90749,2.25908
3496.87779,2.25934
3495.84808,2.25967
3494.81838,2.26005
3493.78868,2.26047
3492.75897,2.26093
3491.72927,2.26138
3490.69956,2.26174
3489.66986,2.26202
3488.64015,2.26224
3487.61045,2.26236
3486.58074,2.26233
3485.55104,2.26220
3484.52133,2.26204
3483.49163,2.26190
3482.46192,2.26175
3481.43222,2.26157
3480.40251,2.26139
3479.37281,2.26121
3478.34310,2.26104
3477.31340,2.26094
3476.28369,2.26095
3475.25399,2.26110
3474.22428,2.26133
3473.19458,2.26164
3472.16487,2.26194
3471.13517,2.26220
3470.10546,2.26240
3469.07576,2.26254
3468.04605,2.26258
3467.01635,2.26245
3465.98664,2.26212
3464.95694,2.26158
3463.92723,2.26084
3462.89753,2.25992
3461.86782,2.25886
3460.83812,2.25778
3459.80841,2.25671
3458.77871,2.25562
3457.74900,2.25451
3456.71930,2.25341
3455.68959,2.25237
3454.65989,2.25143
3453.63018,2.25061
3452.60048,2.24997
3451.57077,2.24951
3450.54107,2.24920
3449.51136,2.24899
3448.48166,2.24883
3447.45196,2.24869
3446.42225,2.24858
3445.39255,2.24857
3444.36284,2.24867
3443.33314,2.24886
3442.30343,2.24909
3441.27373,2.24931
3440.24402,2.24953
3439.21432,2.24976
3438.18461,2.24999
3437.15491,2.25023
3436.12520,2.25048
3435.09550,2.25067
3434.06579,2.25079
3433.03609,2.25084
3432.00638,2.25080
3430.97668,2.25068
3429.94697,2.25049
3428.91727,2.25024
3427.88756,2.24995
3426.85786,2.24958
3425.82815,2.24910
3424.79845,2.24850
3423.76874,2.24779
3422.73904,2.24704
3421.70933,2.24632
3420.67963,2.24566
3419.64992,2.24504
3418.62022,2.24445
3417.59051,2.24389
3416.56081,2.24336
3415.53110,2.24287
3414.50140,2.24244
3413.47169,2.24204
3412.44199,2.24169
3411.41228,2.24138
3410.38258,2.24111
3409.35287,2.24093
3408.32317,2.24083
3407.29346,2.24076
3406.26376,2.24075
3405.23405,2.24080
3404.20435,2.24090
3403.17465,2.24106
3402.14494,2.24125
3401.11524,2.24143
3400.08553,2.24160
3399.05583,2.24175
3398.02612,2.24186
3396.99642,2.24193
3395.96671,2.24194
3394.93701,2.24189
3393.90730,2.24175
3392.87760,2.24152
3391.84789,2.24120
3390.81819,2.24081
3389.78848,2.24031
3388.75878,2.23974
3387.72907,2.23913
3386.69937,2.23852
3385.66966,2.23794
3384.63996,2.23741
3383.61025,2.23695
3382.58055,2.23657
3381.55084,2.23628
3380.52114,2.23607
3379.49143,2.23595
3378.46173,2.23590
3377.43202,2.23588
3376.40232,2.23589
3375.37261,2.23591
3374.34291,2.23595
3373.31320,2.23599
3372.28350,2.23604
3371.25379,2.23605
3370.22409,2.23598
3369.19438,2.23581
3368.16468,2.23558
3367.13497,2.23529
3366.10527,2.23497
3365.07556,2.23462
3364.04586,2.23431
3363.01615,2.23407
3361.98645,2.23391
3360.95674,2.23384
3359.92704,2.23386
3358.89734,2.23397
3357.86763,2.23413
3356.83793,2.23433
3355.80822,2.23454
3354.77852,2.23477
3353.74881,2.23503
3352.71911,2.23530
3351.68940,2.23559
3350.65970,2.23591
3349.62999,2.23619
3348.60029,2.23641
3347.57058,2.23649
3346.54088,2.23642
3345.51117,2.23618
3344.48147,2.23581
3343.45176,2.23535
3342.42206,2.23483
3341.39235,2.23428
3340.36265,2.23374
3339.33294,2.23326
3338.30324,2.23281
3337.27353,2.23238
3336.24383,2.23196
3335.21412,2.23155
3334.18442,2.23116
3333.15471,2.23080
3332.12501,2.23048
3331.09530,2.23019
3330.06560,2.22993
3329.03589,2.22974
3328.00619,2.22960
3326.97648,2.22948
3325.94678,2.22937
3324.91707,2.22924
3323.88737,2.22906
3322.85766,2.22880
3321.82796,2.22848
3320.79825,2.22811
3319.76855,2.22773
3318.73884,2.22739
3317.70914,2.22708
3316.67943,2.22683
3315.64973,2.22666
3314.62003,2.22658
3313.59032,2.22658
3312.56062,2.22663
3311.53091,2.22679
3310.50121,2.22705
3309.47150,2.22740
3308.44180,2.22782
3307.41209,2.22828
3306.38239,2.22873
3305.35268,2.22920
3304.32298,2.22966
3303.29327,2.23009
3302.26357,2.23046
3301.23386,2.23075
3300.20416,2.23092
3299.17445,2.23095
3298.14475,2.23085
3297.11504,2.23063
3296.08534,2.23032
3295.05563,2.22996
3294.02593,2.22953
3292.99622,2.22904
3291.96652,2.22855
3290.93681,2.22808
3289.90711,2.22767
3288.87740,2.22731
3287.84770,2.22703
3286.81799,2.22686
3285.78829,2.22678
3284.75858,2.22678
3283.72888,2.22683
3282.69917,2.22691
3281.66947,2.22701
3280.63976,2.22715
3279.61006,2.22731
3278.58035,2.22747
3277.55065,2.22760
3276.52094,2.22767
3275.49124,2.22768
3274.46153,2.22765
3273.43183,2.22758
3272.40212,2.22747
3271.37242,2.22731
3270.34271,2.22710
3269.31301,2.22683
3268.28331,2.22655
3267.25360,2.22627
3266.22390,2.22601
3265.19419,2.22577
3264.16449,2.22554
3263.13478,2.22537
3262.10508,2.22523
3261.07537,2.22515
3260.04567,2.22509
3259.01596,2.22504
3257.98626,2.22499
3256.95655,2.22498
3255.92685,2.22501
3254.89714,2.22505
3253.86744,2.22510
3252.83773,2.22512
3251.80803,2.22516
3250.77832,2.22525
3249.74862,2.22535
3248.71891,2.22544
3247.68921,2.22550
3246.65950,2.22554
3245.62980,2.22556
3244.60009,2.22555
3243.57039,2.22553
3242.54068,2.22547
3241.51098,2.22537
3240.48127,2.22522
3239.45157,2.22506
3238.42186,2.22488
3237.39216,2.22471
3236.36245,2.22455
3235.33275,2.22438
3234.30304,2.22417
3233.27334,2.22396
3232.24363,2.22377
3231.21393,2.22357
3230.18422,2.22336
3229.15452,2.22316
3228.12481,2.22300
3227.09511,2.22287
3226.06540,2.22276
3225.03570,2.22264
3224.00600,2.22250
3222.97629,2.22238
3221.94659,2.22231
3220.91688,2.22229
3219.88718,2.22225
3218.85747,2.22221
3217.82777,2.22216
3216.79806,2.22211
3215.76836,2.22207
3214.73865,2.22205
3213.70895,2.22206
3212.67924,2.22208
3211.64954,2.22211
3210.61983,2.22212
3209.59013,2.22212
3208.56042,2.22212
3207.53072,2.22208
3206.50101,2.22199
3205.47131,2.22184
3204.44160,2.22166
3203.41190,2.22145
3202.38219,2.22119
3201.35249,2.22088
3200.32278,2.22057
3199.29308,2.22031
3198.26337,2.22011
3197.23367,2.21997
3196.20396,2.21984
3195.17426,2.21971
3194.14455,2.21960
3193.11485,2.21956
3192.08514,2.21958
3191.05544,2.21967
3190.02573,2.21978
3188.99603,2.21993
3187.96632,2.22011
3186.93662,2.22028
3185.90691,2.22042
3184.87721,2.22052
3183.84750,2.22055
3182.81780,2.22048
3181.78809,2.22032
3180.75839,2.22009
3179.72869,2.21981
3178.69898,2.21946
3177.66928,2.21907
3176.63957,2.21869
3175.60987,2.21836
3174.58016,2.21807
3173.55046,2.21781
3172.52075,2.21757
3171.49105,2.21738
3170.46134,2.21726
3169.43164,2.21723
3168.40193,2.21728
3167.37223,2.21741
3166.34252,2.21758
3165.31282,2.21776
3164.28311,2.21797
3163.25341,2.21819
3162.22370,2.21838
3161.19400,2.21853
3160.16429,2.21862
3159.13459,2.21866
3158.10488,2.21865
3157.07518,2.21862
3156.04547,2.21859
3155.01577,2.21853
3153.98606,2.21849
3152.95636,2.21849
3151.92665,2.21854
3150.89695,2.21863
3149.86724,2.21874
3148.83754,2.21884
3147.80783,2.21895
3146.77813,2.21905
3145.74842,2.21915
3144.71872,2.21923
3143.68901,2.21930
3142.65931,2.21934
3141.62960,2.21934
3140.59990,2.21932
3139.57019,2.21929
3138.54049,2.21923
3137.51078,2.21910
3136.48108,2.21893
3135.45138,2.21875
3134.42167,2.21860
3133.39197,2.21850
3132.36226,2.21843
3131.33256,2.21837
3130.30285,2.21830
3129.27315,2.21828
3128.24344,2.21830
3127.21374,2.21834
3126.18403,2.21836
3125.15433,2.21834
3124.12462,2.21827
3123.09492,2.21816
3122.06521,2.21803
3121.03551,2.21787
3120.00580,2.21770
3118.97610,2.21752
3117.94639,2.21737
3116.91669,2.21728
3115.88698,2.21722
3114.85728,2.21720
3113.82757,2.21721
3112.79787,2.21729
3111.76816,2.21745
3110.73846,2.21768
3109.70875,2.21799
3108.67905,2.21833
3107.64934,2.21867
3106.61964,2.21899
3105.58993,2.21931
3104.56023,2.21964
3103.53052,2.21997
3102.50082,2.22021
3101.47111,2.22037
3100.44141,2.22044
3099.41170,2.22043
3098.38200,2.22033
3097.35229,2.22017
3096.32259,2.21996
3095.29288,2.21974
3094.26318,2.21953
3093.23347,2.21936
3092.20377,2.21919
3091.17406,2.21904
3090.14436,2.21896
3089.11466,2.21897
3088.08495,2.21909
3087.05525,2.21929
3086.02554,2.21956
3084.99584,2.21990
3083.96613,2.22029
3082.93643,2.22071
3081.90672,2.22114
3080.87702,2.22159
3079.84731,2.22201
3078.81761,2.22237
3077.78790,2.22264
3076.75820,2.22283
3075.72849,2.22293
3074.69879,2.22293
3073.66908,2.22284
3072.63938,2.22271
3071.60967,2.22254
3070.57997,2.22238
3069.55026,2.22223
3068.52056,2.22213
3067.49085,2.22208
3066.46115,2.22212
3065.43144,2.22226
3064.40174,2.22249
3063.37203,2.22279
3062.34233,2.22314
3061.31262,2.22351
3060.28292,2.22388
3059.25321,2.22426
3058.22351,2.22462
3057.19380,2.22496
3056.16410,2.22524
3055.13439,2.22545
3054.10469,2.22557
3053.07498,2.22559
3052.04528,2.22551
3051.01557,2.22534
3049.98587,2.22513
3048.95616,2.22493
3047.92646,2.22477
3046.89675,2.22471
3045.86705,2.22476
3044.83735,2.22493
3043.80764,2.22520
3042.77794,2.22556
3041.74823,2.22600
3040.71853,2.22649
3039.68882,2.22700
3038.65912,2.22752
3037.62941,2.22802
3036.59971,2.22852
3035.57000,2.22903
3034.54030,2.22955
3033.51059,2.23006
3032.48089,2.23055
3031.45118,2.23100
3030.42148,2.23139
3029.39177,2.23169
3028.36207,2.23192
3027.33236,2.23210
3026.30266,2.23227
3025.27295,2.23248
3024.24325,2.23275
3023.21354,2.23310
3022.18384,2.23351
3021.15413,2.23393
3020.12443,2.23433
3019.09472,2.23469
3018.06502,2.23501
3017.03531,2.23530
3016.00561,2.23556
3014.97590,2.23580
3013.94620,2.23605
3012.91649,2.23635
3011.88679,2.23671
3010.85708,2.23712
3009.82738,2.23760
3008.79767,2.23815
3007.76797,2.23878
3006.73826,2.23947
3005.70856,2.24020
3004.67885,2.24095
3003.64915,2.24176
3002.61944,2.24263
3001.58974,2.24359
3000.56004,2.24461
2999.53033,2.24567
2998.50063,2.24672
2997.47092,2.24773
2996.44122,2.24866
2995.41151,2.24948
2994.38181,2.25023
2993.35210,2.25092
2992.32240,2.25156
2991.29269,2.25217
2990.26299,2.25278
2989.23328,2.25340
2988.20358,2.25404
2987.17387,2.25467
2986.14417,2.25533
2985.11446,2.25608
2984.08476,2.25695
2983.05505,2.25794
2982.02535,2.25904
2980.99564,2.26023
2979.96594,2.26155
2978.93623,2.26297
2977.90653,2.26449
2976.87682,2.26608
2975.84712,2.26775
2974.81741,2.26949
2973.78771,2.27129
2972.75800,2.27316
2971.72830,2.27503
2970.69859,2.27690
2969.66889,2.27876
2968.63918,2.28056
2967.60948,2.28226
2966.57977,2.28385
2965.55007,2.28531
2964.52036,2.28659
2963.49066,2.28766
2962.46095,2.28854
2961.43125,2.28926
2960.40154,2.28985
2959.37184,2.29033
2958.34213,2.29070
2957.31243,2.29097
2956.28273,2.29117
2955.25302,2.29133
2954.22332,2.29148
2953.19361,2.29167
2952.16391,2.29201
2951.13420,2.29258
2950.10450,2.29343
2949.07479,2.29456
2948.04509,2.29596
2947.01538,2.29760
2945.98568,2.29943
2944.95597,2.30141
2943.92627,2.30350
2942.89656,2.30565
2941.86686,2.30785
2940.83715,2.31002
2939.80745,2.31210
2938.77774,2.31398
2937.74804,2.31555
2936.71833,2.31667
2935.68863,2.31715
2934.65892,2.31679
2933.62922,2.31536
2932.59951,2.31262
2931.56981,2.30835
2930.54010,2.30237
2929.51040,2.29460
2928.48069,2.28501
2927.45099,2.27365
2926.42128,2.26057
2925.39158,2.24589
2924.36187,2.22978
2923.33217,2.21250
2922.30246,2.19435
2921.27276,2.17574
2920.24305,2.15711
2919.21335,2.13897
2918.18364,2.12179
2917.15394,2.10605
2916.12423,2.09215
2915.09453,2.08042
2914.06482,2.07107
2913.03512,2.06419
2912.00541,2.05974
2910.97571,2.05758
2909.94601,2.05750
2908.91630,2.05918
2907.88660,2.06232
2906.85689,2.06659
2905.82719,2.07168
2904.79748,2.07731
2903.76778,2.08320
2902.73807,2.08908
2901.70837,2.09473
2900.67866,2.09995
2899.64896,2.10462
2898.61925,2.10866
2897.58955,2.11209
2896.55984,2.11493
2895.53014,2.11727
2894.50043,2.11921
2893.47073,2.12089
2892.44102,2.12242
2891.41132,2.12387
2890.38161,2.12532
2889.35191,2.12679
2888.32220,2.12829
2887.29250,2.12981
2886.26279,2.13135
2885.23309,2.13291
2884.20338,2.13450
2883.17368,2.13612
2882.14397,2.13780
2881.11427,2.13956
2880.08456,2.14138
2879.05486,2.14327
2878.02515,2.14522
2876.99545,2.14718
2875.96574,2.14916
2874.93604,2.15121
2873.90633,2.15340
2872.87663,2.15584
2871.84692,2.15858
2870.81722,2.16167
2869.78751,2.16511
2868.75781,2.16883
2867.72810,2.17266
2866.69840,2.17644
2865.66870,2.17995
2864.63899,2.18301
2863.60929,2.18537
2862.57958,2.18684
2861.54988,2.18721
2860.52017,2.18631
2859.49047,2.18400
2858.46076,2.18021
2857.43106,2.17490
2856.40135,2.16806
2855.37165,2.15974
2854.34194,2.15006
2853.31224,2.13923
2852.28253,2.12756
2851.25283,2.11549
2850.22312,2.10350
2849.19342,2.09208
2848.16371,2.08169
2847.13401,2.07267
2846.10430,2.06525
2845.07460,2.05955
2844.04489,2.05558
2843.01519,2.05328
2841.98548,2.05255
2840.95578,2.05328
2839.92607,2.05526
2838.89637,2.05828
2837.86666,2.06209
2836.83696,2.06645
2835.80725,2.07112
2834.77755,2.07589
2833.74784,2.08055
2832.71814,2.08491
2831.68843,2.08883
2830.65873,2.09223
2829.62902,2.09507
2828.59932,2.09739
2827.56961,2.09926
2826.53991,2.10078
2825.51020,2.10205
2824.48050,2.10318
2823.45079,2.10421
2822.42109,2.10517
2821.39139,2.10607
2820.36168,2.10693
2819.33198,2.10775
2818.30227,2.10853
2817.27257,2.10929
2816.24286,2.11004
2815.21316,2.11076
2814.18345,2.11145
2813.15375,2.11210
2812.12404,2.11274
2811.09434,2.11338
2810.06463,2.11401
2809.03493,2.11464
2808.00522,2.11528
2806.97552,2.11591
2805.94581,2.11652
2804.91611,2.11709
2803.88640,2.11762
2802.85670,2.11809
2801.82699,2.11850
2800.79729,2.11887
2799.76758,2.11921
2798.73788,2.11954
2797.70817,2.11985
2796.67847,2.12015
2795.64876,2.12045
2794.61906,2.12075
2793.58935,2.12104
2792.55965,2.12132
2791.52994,2.12158
2790.50024,2.12183
2789.47053,2.12208
2788.44083,2.12231
2787.41112,2.12255
2786.38142,2.12280
2785.35171,2.12305
2784.32201,2.12328
2783.29230,2.12350
2782.26260,2.12367
2781.23289,2.12379
2780.20319,2.12388
2779.17348,2.12395
2778.14378,2.12400
2777.11408,2.12403
2776.08437,2.12406
2775.05467,2.12410
2774.02496,2.12416
2772.99526,2.12420
2771.96555,2.12424
2770.93585,2.12429
2769.90614,2.12436
2768.87644,2.12445
2767.84673,2.12457
2766.81703,2.12470
2765.78732,2.12486
2764.75762,2.12503
2763.72791,2.12519
2762.69821,2.12534
2761.66850,2.12549
2760.63880,2.12562
2759.60909,2.12570
2758.57939,2.12575
2757.54968,2.12576
2756.51998,2.12574
2755.49027,2.12571
2754.46057,2.12567
2753.43086,2.12560
2752.40116,2.12553
2751.37145,2.12546
2750.34175,2.12541
2749.31204,2.12536
2748.28234,2.12530
2747.25263,2.12526
2746.22293,2.12525
2745.19322,2.12528
2744.16352,2.12536
2743.13381,2.12548
2742.10411,2.12562
2741.07440,2.12580
2740.04470,2.12597
2739.01499,2.12612
2737.98529,2.12624
2736.95558,2.12633
2735.92588,2.12639
2734.89617,2.12639
2733.86647,2.12636
2732.83676,2.12630
2731.80706,2.12622
2730.77736,2.12613
2729.74765,2.12603
2728.71795,2.12592
2727.68824,2.12581
2726.65854,2.12568
2725.62883,2.12552
2724.59913,2.12534
2723.56942,2.12513
2722.53972,2.12491
2721.51001,2.12467
2720.48031,2.12444
2719.45060,2.12423
2718.42090,2.12404
2717.39119,2.12386
2716.36149,2.12366
2715.33178,2.12342
2714.30208,2.12315
2713.27237,2.12287
2712.24267,2.12261
2711.21296,2.12237
2710.18326,2.12217
2709.15355,2.12204
2708.12385,2.12197
2707.09414,2.12199
2706.06444,2.12208
2705.03473,2.12220
2704.00503,2.12232
2702.97532,2.12243
2701.94562,2.12251
2700.91591,2.12256
2699.88621,2.12259
2698.85650,2.12259
2697.82680,2.12257
2696.79709,2.12255
2695.76739,2.12253
2694.73768,2.12251
2693.70798,2.12246
2692.67827,2.12237
2691.64857,2.12224
2690.61886,2.12210
2689.58916,2.12198
2688.55945,2.12191
2687.52975,2.12187
2686.50005,2.12188
2685.47034,2.12195
2684.44064,2.12207
2683.41093,2.12223
2682.38123,2.12240
2681.35152,2.12254
2680.32182,2.12264
2679.29211,2.12268
2678.26241,2.12267
2677.23270,2.12263
2676.20300,2.12255
2675.17329,2.12244
2674.14359,2.12228
2673.11388,2.12209
2672.08418,2.12186
2671.05447,2.12160
2670.02477,2.12131
2668.99506,2.12100
2667.96536,2.12068
2666.93565,2.12036
2665.90595,2.12007
2664.87624,2.11983
2663.84654,2.11964
2662.81683,2.11949
2661.78713,2.11935
2660.75742,2.11923
2659.72772,2.11912
2658.69801,2.11902
2657.66831,2.11892
2656.63860,2.11881
2655.60890,2.11870
2654.57919,2.11861
2653.54949,2.11851
2652.51978,2.11840
2651.49008,2.11827
2650.46037,2.11811
2649.43067,2.11795
2648.40096,2.11779
2647.37126,2.11764
2646.34155,2.11749
2645.31185,2.11736
2644.28214,2.11724
2643.25244,2.11712
2642.22274,2.11703
2641.19303,2.11699
2640.16333,2.11699
2639.13362,2.11698
2638.10392,2.11694
2637.07421,2.11687
2636.04451,2.11678
2635.01480,2.11667
2633.98510,2.11654
2632.95539,2.11640
2631.92569,2.11624
2630.89598,2.11608
2629.86628,2.11590
2628.83657,2.11569
2627.80687,2.11547
2626.77716,2.11525
2625.74746,2.11505
2624.71775,2.11489
2623.68805,2.11476
2622.65834,2.11464
2621.62864,2.11454
2620.59893,2.11448
2619.56923,2.11446
2618.53952,2.11449
2617.50982,2.11456
2616.48011,2.11467
2615.45041,2.11477
2614.42070,2.11485
2613.39100,2.11491
2612.36129,2.11495
2611.33159,2.11498
2610.30188,2.11499
2609.27218,2.11500
2608.24247,2.11498
2607.21277,2.11494
2606.18306,2.11486
2605.15336,2.11474
2604.12365,2.11458
2603.09395,2.11441
2602.06424,2.11422
2601.03454,2.11401
2600.00483,2.11377
2598.97513,2.11349
2597.94543,2.11320
2596.91572,2.11293
2595.88602,2.11268
2594.85631,2.11245
2593.82661,2.11224
2592.79690,2.11203
2591.76720,2.11180
2590.73749,2.11157
2589.70779,2.11132
2588.67808,2.11108
2587.64838,2.11085
2586.61867,2.11064
2585.58897,2.11045
2584.55926,2.11028
2583.52956,2.11011
2582.49985,2.10994
2581.47015,2.10978
2580.44044,2.10962
2579.41074,2.10948
2578.38103,2.10935
2577.35133,2.10921
2576.32162,2.10906
2575.29192,2.10892
2574.26221,2.10881
2573.23251,2.10874
2572.20280,2.10872
2571.17310,2.10873
2570.14339,2.10874
2569.11369,2.10874
2568.08398,2.10873
2567.05428,2.10871
2566.02457,2.10869
2564.99487,2.10867
2563.96516,2.10866
2562.93546,2.10866
2561.90575,2.10867
2560.87605,2.10867
2559.84634,2.10867
2558.81664,2.10866
2557.78693,2.10863
2556.75723,2.10858
2555.72752,2.10852
2554.69782,2.10844
2553.66811,2.10835
2552.63841,2.10825
2551.60871,2.10815
2550.57900,2.10806
2549.54930,2.10800
2548.51959,2.10795
2547.48989,2.10789
2546.46018,2.10782
2545.43048,2.10775
2544.40077,2.10767
2543.37107,2.10762
2542.34136,2.10759
2541.31166,2.10759
2540.28195,2.10761
2539.25225,2.10766
2538.22254,2.10774
2537.19284,2.10783
2536.16313,2.10793
2535.13343,2.10803
2534.10372,2.10813
2533.07402,2.10824
2532.04431,2.10836
2531.01461,2.10850
2529.98490,2.10865
2528.95520,2.10881
2527.92549,2.10897
2526.89579,2.10913
2525.86608,2.10930
2524.83638,2.10946
2523.80667,2.10959
2522.77697,2.10970
2521.74726,2.10979
2520.71756,2.10988
2519.68785,2.10996
2518.65815,2.11003
2517.62844,2.11008
2516.59874,2.11012
2515.56903,2.11014
2514.53933,2.11014
2513.50962,2.11013
2512.47992,2.11010
2511.45021,2.11003
2510.42051,2.10994
2509.39080,2.10984
2508.36110,2.10970
2507.33140,2.10953
2506.30169,2.10931
2505.27199,2.10905
2504.24228,2.10875
2503.21258,2.10840
2502.18287,2.10800
2501.15317,2.10754
2500.12346,2.10701
2499.09376,2.10641
2498.06405,2.10576
2497.03435,2.10508
2496.00464,2.10439
2494.97494,2.10370
2493.94523,2.10301
2492.91553,2.10234
2491.88582,2.10169
2490.85612,2.10108
2489.82641,2.10053
2488.79671,2.10003
2487.76700,2.09960
2486.73730,2.09924
2485.70759,2.09893
2484.67789,2.09866
2483.64818,2.09842
2482.61848,2.09819
2481.58877,2.09800
2480.55907,2.09782
2479.52936,2.09762
2478.49966,2.09739
2477.46995,2.09712
2476.44025,2.09679
2475.41054,2.09642
2474.38084,2.09602
2473.35113,2.09561
2472.32143,2.09521
2471.29172,2.09482
2470.26202,2.09442
2469.23231,2.09403
2468.20261,2.09363
2467.17290,2.09325
2466.14320,2.09288
2465.11349,2.09255
2464.08379,2.09223
2463.05409,2.09194
2462.02438,2.09165
2460.99468,2.09136
2459.96497,2.09105
2458.93527,2.09074
2457.90556,2.09042
2456.87586,2.09010
2455.84615,2.08976
2454.81645,2.08941
2453.78674,2.08906
2452.75704,2.08872
2451.72733,2.08841
2450.69763,2.08814
2449.66792,2.08791
2448.63822,2.08774
2447.60851,2.08763
2446.57881,2.08756
2445.54910,2.08753
2444.51940,2.08753
2443.48969,2.08755
2442.45999,2.08758
2441.43028,2.08761
2440.40058,2.08762
2439.37087,2.08760
2438.34117,2.08753
2437.31146,2.08742
2436.28176,2.08727
2435.25205,2.08707
2434.22235,2.08685
2433.19264,2.08660
2432.16294,2.08634
2431.13323,2.08608
2430.10353,2.08580
2429.07382,2.08552
2428.04412,2.08524
2427.01441,2.08498
2425.98471,2.08475
2424.95500,2.08454
2423.92530,2.08436
2422.89559,2.08420
2421.86589,2.08404
2420.83618,2.08387
2419.80648,2.08369
2418.77678,2.08350
2417.74707,2.08329
2416.71737,2.08307
2415.68766,2.08284
2414.65796,2.08259
2413.62825,2.08234
2412.59855,2.08209
2411.56884,2.08183
2410.53914,2.08157
2409.50943,2.08130
2408.47973,2.08102
2407.45002,2.08076
2406.42032,2.08049
2405.39061,2.08022
2404.36091,2.07996
2403.33120,2.07971
2402.30150,2.07947
2401.27179,2.07926
2400.24209,2.07903
2399.21238,2.07878
2398.18268,2.07850
2397.15297,2.07818
2396.12327,2.07786
2395.09356,2.07754
2394.06386,2.07724
2393.03415,2.07697
2392.00445,2.07675
2390.97474,2.07655
2389.94504,2.07636
2388.91533,2.07620
2387.88563,2.07606
2386.85592,2.07595
2385.82622,2.07586
2384.79651,2.07581
2383.76681,2.07581
2382.73710,2.07584
2381.70740,2.07592
2380.67769,2.07604
2379.64799,2.07620
2378.61828,2.07640
2377.58858,2.07663
2376.55887,2.07687
2375.52917,2.07710
2374.49946,2.07732
2373.46976,2.07755
2372.44006,2.07783
2371.41035,2.07815
2370.38065,2.07850
2369.35094,2.07887
2368.32124,2.07924
2367.29153,2.07960
2366.26183,2.07991
2365.23212,2.08015
2364.20242,2.08033
2363.17271,2.08041
2362.14301,2.08034
2361.11330,2.08015
2360.08360,2.07983
2359.05389,2.07939
2358.02419,2.07882
2356.99448,2.07813
2355.96478,2.07736
2354.93507,2.07655
2353.90537,2.07571
2352.87566,2.07485
2351.84596,2.07400
2350.81625,2.07321
2349.78655,2.07252
2348.75684,2.07197
2347.72714,2.07156
2346.69743,2.07125
2345.66773,2.07103
2344.63802,2.07090
2343.60832,2.07086
2342.57861,2.07089
2341.54891,2.07096
2340.51920,2.07103
2339.48950,2.07106
2338.45979,2.07103
2337.43009,2.07095
2336.40038,2.07082
2335.37068,2.07065
2334.34097,2.07041
2333.31127,2.07012
2332.28156,2.06981
2331.25186,2.06951
2330.22215,2.06919
2329.19245,2.06883
2328.16275,2.06844
2327.13304,2.06806
2326.10334,2.06770
2325.07363,2.06735
2324.04393,2.06697
2323.01422,2.06652
2321.98452,2.06599
2320.95481,2.06540
2319.92511,2.06477
2318.89540,2.06412
2317.86570,2.06343
2316.83599,2.06270
2315.80629,2.06195
2314.77658,2.06119
2313.74688,2.06042
2312.71717,2.05969
2311.68747,2.05900
2310.65776,2.05838
2309.62806,2.05782
2308.59835,2.05733
2307.56865,2.05694
2306.53894,2.05662
2305.50924,2.05638
2304.47953,2.05620
2303.44983,2.05610
2302.42012,2.05606
2301.39042,2.05606
2300.36071,2.05607
2299.33101,2.05607
2298.30130,2.05606
2297.27160,2.05605
2296.24189,2.05605
2295.21219,2.05604
2294.18248,2.05601
2293.15278,2.05597
2292.12307,2.05591
2291.09337,2.05580
2290.06366,2.05563
2289.03396,2.05542
2288.00425,2.05519
2286.97455,2.05495
2285.94484,2.05469
2284.91514,2.05441
2283.88544,2.05413
2282.85573,2.05386
2281.82603,2.05361
2280.79632,2.05340
2279.76662,2.05323
2278.73691,2.05309
2277.70721,2.05298
2276.67750,2.05289
2275.64780,2.05283
2274.61809,2.05281
2273.58839,2.05282
2272.55868,2.05286
2271.52898,2.05290
2270.49927,2.05293
2269.46957,2.05293
2268.43986,2.05290
2267.41016,2.05285
2266.38045,2.05273
2265.35075,2.05256
2264.32104,2.05236
2263.29134,2.05215
2262.26163,2.05193
2261.23193,2.05170
2260.20222,2.05147
2259.17252,2.05126
2258.14281,2.05107
2257.11311,2.05091
2256.08340,2.05077
2255.05370,2.05064
2254.02399,2.05052
2252.99429,2.05042
2251.96458,2.05035
2250.93488,2.05031
2249.90517,2.05030
2248.87547,2.05030
2247.84576,2.05030
2246.81606,2.05030
2245.78635,2.05029
2244.75665,2.05028
2243.72694,2.05027
2242.69724,2.05025
2241.66753,2.05021
2240.63783,2.05018
2239.60813,2.05015
2238.57842,2.05014
2237.54872,2.05013
2236.51901,2.05011
2235.48931,2.05007
2234.45960,2.04999
2233.42990,2.04985
2232.40019,2.04967
2231.37049,2.04945
2230.34078,2.04921
2229.31108,2.04897
2228.28137,2.04875
2227.25167,2.04856
2226.22196,2.04839
2225.19226,2.04822
2224.16255,2.04806
2223.13285,2.04790
2222.10314,2.04778
2221.07344,2.04769
2220.04373,2.04765
2219.01403,2.04765
2217.98432,2.04768
2216.95462,2.04775
2215.92491,2.04786
2214.89521,2.04799
2213.86550,2.04812
2212.83580,2.04824
2211.80609,2.04833
2210.77639,2.04837
2209.74668,2.04837
2208.71698,2.04834
2207.68727,2.04831
2206.65757,2.04830
2205.62786,2.04831
2204.59816,2.04831
2203.56845,2.04831
2202.53875,2.04829
2201.50904,2.04823
2200.47934,2.04814
2199.44963,2.04803
2198.41993,2.04792
2197.39022,2.04781
2196.36052,2.04769
2195.33081,2.04757
2194.30111,2.04744
2193.27141,2.04731
2192.24170,2.04719
2191.21200,2.04706
2190.18229,2.04692
2189.15259,2.04678
2188.12288,2.04664
2187.09318,2.04652
2186.06347,2.04644
2185.03377,2.04640
2184.00406,2.04642
2182.97436,2.04649
2181.94465,2.04662
2180.91495,2.04677
2179.88524,2.04694
2178.85554,2.04711
2177.82583,2.04728
2176.79613,2.04743
2175.76642,2.04757
2174.73672,2.04769
2173.70701,2.04778
2172.67731,2.04783
2171.64760,2.04783
2170.61790,2.04777
2169.58819,2.04768
2168.55849,2.04755
2167.52878,2.04738
2166.49908,2.04717
2165.46937,2.04695
2164.43967,2.04672
2163.40996,2.04652
2162.38026,2.04636
2161.35055,2.04624
2160.32085,2.04619
2159.29114,2.04620
2158.26144,2.04628
2157.23173,2.04640
2156.20203,2.04658
2155.17232,2.04679
2154.14262,2.04703
2153.11291,2.04729
2152.08321,2.04755
2151.05350,2.04780
2150.02380,2.04804
2148.99410,2.04826
2147.96439,2.04844
2146.93469,2.04857
2145.90498,2.04866
2144.87528,2.04869
2143.84557,2.04867
2142.81587,2.04860
2141.78616,2.04848
2140.75646,2.04832
2139.72675,2.04811
2138.69705,2.04789
2137.66734,2.04766
2136.63764,2.04742
2135.60793,2.04717
2134.57823,2.04692
2133.54852,2.04666
2132.51882,2.04641
2131.48911,2.04616
2130.45941,2.04592
2129.42970,2.04568
2128.40000,2.04544
2127.37029,2.04520
2126.34059,2.04497
2125.31088,2.04476
2124.28118,2.04456
2123.25147,2.04435
2122.22177,2.04414
2121.19206,2.04394
2120.16236,2.04373
2119.13265,2.04351
2118.10295,2.04328
2117.07324,2.04305
2116.04354,2.04280
2115.01383,2.04254
2113.98413,2.04228
2112.95442,2.04202
2111.92472,2.04175
2110.89501,2.04149
2109.86531,2.04124
2108.83560,2.04099
2107.80590,2.04077
2106.77619,2.04055
2105.74649,2.04034
2104.71679,2.04014
2103.68708,2.03997
2102.65738,2.03984
2101.62767,2.03974
2100.59797,2.03966
2099.56826,2.03960
2098.53856,2.03954
2097.50885,2.03950
2096.47915,2.03946
2095.44944,2.03944
2094.41974,2.03943
2093.39003,2.03943
2092.36033,2.03943
2091.33062,2.03942
2090.30092,2.03941
2089.27121,2.03939
2088.24151,2.03936
2087.21180,2.03934
2086.18210,2.03931
2085.15239,2.03929
2084.12269,2.03926
2083.09298,2.03921
2082.06328,2.03917
2081.03357,2.03913
2080.00387,2.03911
2078.97416,2.03911
2077.94446,2.03914
2076.91475,2.03916
2075.88505,2.03917
2074.85534,2.03918
2073.82564,2.03918
2072.79593,2.03920
2071.76623,2.03923
2070.73652,2.03927
2069.70682,2.03930
2068.67711,2.03932
2067.64741,2.03932
2066.61770,2.03930
2065.58800,2.03926
2064.55829,2.03921
2063.52859,2.03917
2062.49888,2.03912
2061.46918,2.03908
2060.43948,2.03905
2059.40977,2.03902
2058.38007,2.03902
2057.35036,2.03902
2056.32066,2.03904
2055.29095,2.03906
2054.26125,2.03904
2053.23154,2.03899
2052.20184,2.03887
2051.17213,2.03871
2050.14243,2.03851
2049.11272,2.03826
2048.08302,2.03796
2047.05331,2.03759
2046.02361,2.03717
2044.99390,2.03669
2043.96420,2.03619
2042.93449,2.03564
2041.90479,2.03506
2040.87508,2.03448
2039.84538,2.03390
2038.81567,2.03336
2037.78597,2.03284
2036.75626,2.03238
2035.72656,2.03197
2034.69685,2.03161
2033.66715,2.03130
2032.63744,2.03102
2031.60774,2.03077
2030.57803,2.03052
2029.54833,2.03027
2028.51862,2.03003
2027.48892,2.02979
2026.45921,2.02956
2025.42951,2.02935
2024.39980,2.02914
2023.37010,2.02893
2022.34039,2.02872
2021.31069,2.02853
2020.28098,2.02835
2019.25128,2.02818
2018.22157,2.02800
2017.19187,2.02782
2016.16216,2.02765
2015.13246,2.02750
2014.10276,2.02736
2013.07305,2.02724
2012.04335,2.02714
2011.01364,2.02705
2009.98394,2.02694
2008.95423,2.02683
2007.92453,2.02672
2006.89482,2.02660
2005.86512,2.02647
2004.83541,2.02633
2003.80571,2.02618
2002.77600,2.02603
2001.74630,2.02589
2000.71659,2.02575
1999.68689,2.02560
1998.65718,2.02543
1997.62748,2.02526
1996.59777,2.02510
1995.56807,2.02494
1994.53836,2.02477
1993.50866,2.02459
1992.47895,2.02440
1991.44925,2.02420
1990.41954,2.02403
1989.38984,2.02389
1988.36013,2.02375
1987.33043,2.02361
1986.30072,2.02347
1985.27102,2.02333
1984.24131,2.02320
1983.21161,2.02308
1982.18190,2.02296
1981.15220,2.02283
1980.12249,2.02270
1979.09279,2.02257
1978.06308,2.02247
1977.03338,2.02239
1976.00367,2.02233
1974.97397,2.02228
1973.94426,2.02224
1972.91456,2.02223
1971.88485,2.02223
1970.85515,2.02222
1969.82545,2.02219
1968.79574,2.02215
1967.76604,2.02212
1966.73633,2.02209
1965.70663,2.02206
1964.67692,2.02201
1963.64722,2.02196
1962.61751,2.02189
1961.58781,2.02181
1960.55810,2.02172
1959.52840,2.02162
1958.49869,2.02150
1957.46899,2.02136
1956.43928,2.02120
1955.40958,2.02106
1954.37987,2.02093
1953.35017,2.02082
1952.32046,2.02074
1951.29076,2.02068
1950.26105,2.02063
1949.23135,2.02058
1948.20164,2.02053
1947.17194,2.02046
1946.14223,2.02038
1945.11253,2.02030
1944.08282,2.02025
1943.05312,2.02021
1942.02341,2.02015
1940.99371,2.02008
1939.96400,2.02001
1938.93430,2.01995
1937.90459,2.01988
1936.87489,2.01979
1935.84518,2.01969
1934.81548,2.01958
1933.78577,2.01944
1932.75607,2.01928
1931.72636,2.01909
1930.69666,2.01891
1929.66695,2.01874
1928.63725,2.01858
1927.60754,2.01843
1926.57784,2.01829
1925.54814,2.01816
1924.51843,2.01805
1923.48873,2.01797
1922.45902,2.01793
1921.42932,2.01795
1920.39961,2.01802
1919.36991,2.01814
1918.34020,2.01826
1917.31050,2.01837
1916.28079,2.01850
1915.25109,2.01864
1914.22138,2.01876
1913.19168,2.01886
1912.16197,2.01893
1911.13227,2.01899
1910.10256,2.01901
1909.07286,2.01899
1908.04315,2.01894
1907.01345,2.01888
1905.98374,2.01883
1904.95404,2.01878
1903.92433,2.01873
1902.89463,2.01868
1901.86492,2.01866
1900.83522,2.01868
1899.80551,2.01875
1898.77581,2.01886
1897.74610,2.01900
1896.71640,2.01917
1895.68669,2.01935
1894.65699,2.01952
1893.62728,2.01965
1892.59758,2.01974
1891.56787,2.01980
1890.53817,2.01980
1889.50846,2.01972
1888.47876,2.01960
1887.44905,2.01945
1886.41935,2.01926
1885.38964,2.01905
1884.35994,2.01882
1883.33023,2.01859
1882.30053,2.01836
1881.27083,2.01814
1880.24112,2.01792
1879.21142,2.01771
1878.18171,2.01755
1877.15201,2.01746
1876.12230,2.01742
1875.09260,2.01744
1874.06289,2.01751
1873.03319,2.01761
1872.00348,2.01773
1870.97378,2.01787
1869.94407,2.01800
1868.91437,2.01812
1867.88466,2.01821
1866.85496,2.01829
1865.82525,2.01837
1864.79555,2.01847
1863.76584,2.01861
1862.73614,2.01877
1861.70643,2.01895
1860.67673,2.01915
1859.64702,2.01935
1858.61732,2.01957
1857.58761,2.01978
1856.55791,2.01999
1855.52820,2.02021
1854.49850,2.02043
1853.46879,2.02065
1852.43909,2.02091
1851.40938,2.02118
1850.37968,2.02146
1849.34997,2.02172
1848.32027,2.02193
1847.29056,2.02210
1846.26086,2.02224
1845.23115,2.02235
1844.20145,2.02240
1843.17174,2.02244
1842.14204,2.02250
1841.11233,2.02260
1840.08263,2.02271
1839.05292,2.02285
1838.02322,2.02301
1836.99351,2.02319
1835.96381,2.02337
1834.93411,2.02357
1833.90440,2.02378
1832.87470,2.02401
1831.84499,2.02426
1830.81529,2.02455
1829.78558,2.02488
1828.75588,2.02526
1827.72617,2.02573
1826.69647,2.02622
1825.66676,2.02670
1824.63706,2.02715
1823.60735,2.02760
1822.57765,2.02807
1821.54794,2.02857
1820.51824,2.02908
1819.48853,2.02961
1818.45883,2.03018
1817.42912,2.03079
1816.39942,2.03141
1815.36971,2.03206
1814.34001,2.03275
1813.31030,2.03349
1812.28060,2.03427
1811.25089,2.03510
1810.22119,2.03599
1809.19148,2.03694
1808.16178,2.03797
1807.13207,2.03906
1806.10237,2.04022
1805.07266,2.04145
1804.04296,2.04273
1803.01325,2.04400
1801.98355,2.04523
1800.95384,2.04641
1799.92414,2.04756
1798.89443,2.04867
1797.86473,2.04975
1796.83502,2.05073
1795.80532,2.05159
1794.77561,2.05234
1793.74591,2.05299
1792.71620,2.05354
1791.68650,2.05399
1790.65680,2.05440
1789.62709,2.05476
1788.59739,2.05508
1787.56768,2.05535
1786.53798,2.05557
1785.50827,2.05574
1784.47857,2.05589
1783.44886,2.05605
1782.41916,2.05623
1781.38945,2.05641
1780.35975,2.05657
1779.33004,2.05672
1778.30034,2.05687
1777.27063,2.05702
1776.24093,2.05717
1775.21122,2.05732
1774.18152,2.05747
1773.15181,2.05763
1772.12211,2.05779
1771.09240,2.05801
1770.06270,2.05834
1769.03299,2.05876
1768.00329,2.05923
1766.97358,2.05978
1765.94388,2.06044
1764.91417,2.06115
1763.88447,2.06186
1762.85476,2.06257
1761.82506,2.06329
1760.79535,2.06404
1759.76565,2.06480
1758.73594,2.06551
1757.70624,2.06612
1756.67653,2.06664
1755.64683,2.06711
1754.61712,2.06754
1753.58742,2.06791
1752.55771,2.06818
1751.52801,2.06834
1750.49830,2.06839
1749.46860,2.06839
1748.43889,2.06834
1747.40919,2.06823
1746.37949,2.06807
1745.34978,2.06784
1744.32008,2.06751
1743.29037,2.06709
1742.26067,2.06657
1741.23096,2.06595
1740.20126,2.06521
1739.17155,2.06436
1738.14185,2.06346
1737.11214,2.06251
1736.08244,2.06150
1735.05273,2.06040
1734.02303,2.05918
1732.99332,2.05795
1731.96362,2.05681
1730.93391,2.05574
1729.90421,2.05469
1728.87450,2.05364
1727.84480,2.05262
1726.81509,2.05164
1725.78539,2.05070
1724.75568,2.04975
1723.72598,2.04878
1722.69627,2.04781
1721.66657,2.04687
1720.63686,2.04593
1719.60716,2.04496
1718.57745,2.04392
1717.54775,2.04281
1716.51804,2.04167
1715.48834,2.04051
1714.45863,2.03928
1713.42893,2.03800
1712.39922,2.03667
1711.36952,2.03529
1710.33981,2.03386
1709.31011,2.03240
1708.28040,2.03091
1707.25070,2.02939
1706.22099,2.02782
1705.19129,2.02625
1704.16158,2.02471
1703.13188,2.02321
1702.10218,2.02177
1701.07247,2.02036
1700.04277,2.01894
1699.01306,2.01764
1697.98336,2.01655
1696.95365,2.01564
1695.92395,2.01484
1694.89424,2.01414
1693.86454,2.01357
1692.83483,2.01314
1691.80513,2.01286
1690.77542,2.01270
1689.74572,2.01263
1688.71601,2.01268
1687.68631,2.01284
1686.65660,2.01307
1685.62690,2.01332
1684.59719,2.01354
1683.56749,2.01367
1682.53778,2.01384
1681.50808,2.01407
1680.47837,2.01430
1679.44867,2.01451
1678.41896,2.01466
1677.38926,2.01468
1676.35955,2.01457
1675.32985,2.01437
1674.30014,2.01421
1673.27044,2.01410
1672.24073,2.01395
1671.21103,2.01371
1670.18132,2.01341
1669.15162,2.01309
1668.12191,2.01281
1667.09221,2.01262
1666.06250,2.01252
1665.03280,2.01248
1664.00309,2.01251
1662.97339,2.01260
1661.94368,2.01271
1660.91398,2.01285
1659.88427,2.01297
1658.85457,2.01307
1657.82486,2.01318
1656.79516,2.01327
1655.76546,2.01328
1654.73575,2.01320
1653.70605,2.01298
1652.67634,2.01259
1651.64664,2.01217
1650.61693,2.01177
1649.58723,2.01140
1648.55752,2.01100
1647.52782,2.01047
1646.49811,2.00986
1645.46841,2.00927
1644.43870,2.00878
1643.40900,2.00840
1642.37929,2.00810
1641.34959,2.00779
1640.31988,2.00747
1639.29018,2.00714
1638.26047,2.00683
1637.23077,2.00651
1636.20106,2.00614
1635.17136,2.00570
1634.14165,2.00520
1633.11195,2.00471
1632.08224,2.00420
1631.05254,2.00367
1630.02283,2.00311
1628.99313,2.00253
1627.96342,2.00195
1626.93372,2.00145
1625.90401,2.00101
1624.87431,2.00060
1623.84460,2.00019
1622.81490,1.99981
1621.78519,1.99953
1620.75549,1.99935
1619.72578,1.99923
1618.69608,1.99913
1617.66637,1.99901
1616.63667,1.99885
1615.60696,1.99868
1614.57726,1.99857
1613.54755,1.99849
1612.51785,1.99842
1611.48815,1.99835
1610.45844,1.99828
1609.42874,1.99822
1608.39903,1.99817
1607.36933,1.99814
1606.33962,1.99811
1605.30992,1.99809
1604.28021,1.99807
1603.25051,1.99806
1602.22080,1.99807
1601.19110,1.99809
1600.16139,1.99808
1599.13169,1.99802
1598.10198,1.99794
1597.07228,1.99784
1596.04257,1.99768
1595.01287,1.99747
1593.98316,1.99720
1592.95346,1.99690
1591.92375,1.99660
1590.89405,1.99632
1589.86434,1.99608
1588.83464,1.99582
1587.80493,1.99554
1586.77523,1.99527
1585.74552,1.99502
1584.71582,1.99484
1583.68611,1.99468
1582.65641,1.99448
1581.62670,1.99426
1580.59700,1.99407
1579.56729,1.99392
1578.53759,1.99380
1577.50788,1.99369
1576.47818,1.99360
1575.44847,1.99355
1574.41877,1.99356
1573.38906,1.99364
1572.35936,1.99379
1571.32965,1.99401
1570.29995,1.99430
1569.27024,1.99462
1568.24054,1.99500
1567.21084,1.99542
1566.18113,1.99583
1565.15143,1.99620
1564.12172,1.99648
1563.09202,1.99669
1562.06231,1.99685
1561.03261,1.99695
1560.00290,1.99690
1558.97320,1.99660
1557.94349,1.99603
1556.91379,1.99533
1555.88408,1.99456
1554.85438,1.99368
1553.82467,1.99266
1552.79497,1.99156
1551.76526,1.99041
1550.73556,1.98925
1549.70585,1.98808
1548.67615,1.98696
1547.64644,1.98594
1546.61674,1.98503
1545.58703,1.98420
1544.55733,1.98347
1543.52762,1.98291
1542.49792,1.98253
1541.46821,1.98231
1540.43851,1.98229
1539.40880,1.98248
1538.37910,1.98295
1537.34939,1.98374
1536.31969,1.98475
1535.28998,1.98592
1534.26028,1.98721
1533.23057,1.98863
1532.20087,1.99022
1531.17116,1.99186
1530.14146,1.99343
1529.11175,1.99494
1528.08205,1.99639
1527.05234,1.99776
1526.02264,1.99903
1524.99293,2.00019
1523.96323,2.00123
1522.93353,2.00211
1521.90382,2.00278
1520.87412,2.00323
1519.84441,2.00353
1518.81471,2.00376
1517.78500,2.00393
1516.75530,2.00405
1515.72559,2.00418
1514.69589,2.00436
1513.66618,2.00461
1512.63648,2.00490
1511.60677,2.00521
1510.57707,2.00554
1509.54736,2.00593
1508.51766,2.00635
1507.48795,2.00679
1506.45825,2.00718
1505.42854,2.00759
1504.39884,2.00808
1503.36913,2.00865
1502.33943,2.00930
1501.30972,2.00998
1500.28002,2.01067
1499.25031,2.01136
1498.22061,2.01205
1497.19090,2.01270
1496.16120,2.01332
1495.13149,2.01399
1494.10179,2.01479
1493.07208,2.01570
1492.04238,2.01677
1491.01267,2.01802
1489.98297,2.01947
1488.95326,2.02113
1487.92356,2.02306
1486.89385,2.02527
1485.86415,2.02772
1484.83444,2.03038
1483.80474,2.03310
1482.77503,2.03574
1481.74533,2.03814
1480.71562,2.04021
1479.68592,2.04187
1478.65621,2.04298
1477.62651,2.04342
1476.59681,2.04309
1475.56710,2.04192
1474.53740,2.03986
1473.50769,2.03689
1472.47799,2.03299
1471.44828,2.02829
1470.41858,2.02302
1469.38887,2.01735
1468.35917,2.01143
1467.32946,2.00547
1466.29976,1.99967
1465.27005,1.99424
1464.24035,1.98936
1463.21064,1.98519
1462.18094,1.98179
1461.15123,1.97913
1460.12153,1.97716
1459.09182,1.97579
1458.06212,1.97492
1457.03241,1.97447
1456.00271,1.97443
1454.97300,1.97475
1453.94330,1.97529
1452.91359,1.97594
1451.88389,1.97661
1450.85418,1.97719
1449.82448,1.97764
1448.79477,1.97787
1447.76507,1.97788
1446.73536,1.97774
1445.70566,1.97752
1444.67595,1.97722
1443.64625,1.97686
1442.61654,1.97650
1441.58684,1.97620
1440.55713,1.97597
1439.52743,1.97584
1438.49772,1.97582
1437.46802,1.97586
1436.43831,1.97593
1435.40861,1.97603
1434.37890,1.97618
1433.34920,1.97639
1432.31950,1.97664
1431.28979,1.97696
1430.26009,1.97730
1429.23038,1.97763
1428.20068,1.97796
1427.17097,1.97828
1426.14127,1.97858
1425.11156,1.97883
1424.08186,1.97903
1423.05215,1.97917
1422.02245,1.97929
1420.99274,1.97940
1419.96304,1.97947
1418.93333,1.97950
1417.90363,1.97951
1416.87392,1.97954
1415.84422,1.97957
1414.81451,1.97961
1413.78481,1.97966
1412.75510,1.97971
1411.72540,1.97977
1410.69569,1.97986
1409.66599,1.97997
1408.63628,1.98008
1407.60658,1.98019
1406.57687,1.98030
1405.54717,1.98038
1404.51746,1.98046
1403.48776,1.98056
1402.45805,1.98068
1401.42835,1.98081
1400.39864,1.98094
1399.36894,1.98107
1398.33923,1.98118
1397.30953,1.98131
1396.27982,1.98147
1395.25012,1.98162
1394.22041,1.98178
1393.19071,1.98197
1392.16100,1.98215
1391.13130,1.98231
1390.10159,1.98242
1389.07189,1.98248
1388.04219,1.98246
1387.01248,1.98233
1385.98278,1.98212
1384.95307,1.98184
1383.92337,1.98147
1382.89366,1.98097
1381.86396,1.98036
1380.83425,1.97967
1379.80455,1.97889
1378.77484,1.97805
1377.74514,1.97716
1376.71543,1.97622
1375.68573,1.97524
1374.65602,1.97422
1373.62632,1.97318
1372.59661,1.97218
1371.56691,1.97121
1370.53720,1.97028
1369.50750,1.96940
1368.47779,1.96856
1367.44809,1.96776
1366.41838,1.96702
1365.38868,1.96634
1364.35897,1.96572
1363.32927,1.96515
1362.29956,1.96465
1361.26986,1.96426
1360.24015,1.96395
1359.21045,1.96370
1358.18074,1.96352
1357.15104,1.96343
1356.12133,1.96340
1355.09163,1.96343
1354.06192,1.96350
1353.03222,1.96360
1352.00251,1.96373
1350.97281,1.96387
1349.94310,1.96400
1348.91340,1.96415
1347.88369,1.96432
1346.85399,1.96448
1345.82428,1.96462
1344.79458,1.96474
1343.76488,1.96485
1342.73517,1.96497
1341.70547,1.96511
1340.67576,1.96525
1339.64606,1.96539
1338.61635,1.96553
1337.58665,1.96569
1336.55694,1.96588
1335.52724,1.96607
1334.49753,1.96626
1333.46783,1.96645
1332.43812,1.96661
1331.40842,1.96675
1330.37871,1.96684
1329.34901,1.96687
1328.31930,1.96683
1327.28960,1.96673
1326.25989,1.96657
1325.23019,1.96635
1324.20048,1.96608
1323.17078,1.96576
1322.14107,1.96538
1321.11137,1.96498
1320.08166,1.96458
1319.05196,1.96421
1318.02225,1.96389
1316.99255,1.96361
1315.96284,1.96338
1314.93314,1.96320
1313.90343,1.96308
1312.87373,1.96302
1311.84402,1.96303
1310.81432,1.96309
1309.78461,1.96319
1308.75491,1.96333
1307.72520,1.96349
1306.69550,1.96368
1305.66579,1.96387
1304.63609,1.96404
1303.60638,1.96421
1302.57668,1.96438
1301.54697,1.96455
1300.51727,1.96470
1299.48756,1.96483
1298.45786,1.96492
1297.42816,1.96501
1296.39845,1.96511
1295.36875,1.96521
1294.33904,1.96532
1293.30934,1.96544
1292.27963,1.96556
1291.24993,1.96568
1290.22022,1.96578
1289.19052,1.96588
1288.16081,1.96597
1287.13111,1.96604
1286.10140,1.96609
1285.07170,1.96612
1284.04199,1.96613
1283.01229,1.96612
1281.98258,1.96610
1280.95288,1.96609
1279.92317,1.96608
1278.89347,1.96609
1277.86376,1.96609
1276.83406,1.96609
1275.80435,1.96607
1274.77465,1.96603
1273.74494,1.96598
1272.71524,1.96593
1271.68553,1.96588
1270.65583,1.96582
1269.62612,1.96575
1268.59642,1.96568
1267.56671,1.96559
1266.53701,1.96548
1265.50730,1.96536
1264.47760,1.96521
1263.44789,1.96504
1262.41819,1.96484
1261.38848,1.96462
1260.35878,1.96437
1259.32907,1.96410
1258.29937,1.96382
1257.26966,1.96355
1256.23996,1.96328
1255.21025,1.96299
1254.18055,1.96267
1253.15085,1.96232
1252.12114,1.96195
1251.09144,1.96155
1250.06173,1.96114
1249.03203,1.96072
1248.00232,1.96030
1246.97262,1.95989
1245.94291,1.95948
1244.91321,1.95909
1243.88350,1.95871
1242.85380,1.95836
1241.82409,1.95804
1240.79439,1.95774
1239.76468,1.95747
1238.73498,1.95722
1237.70527,1.95700
1236.67557,1.95680
1235.64586,1.95663
1234.61616,1.95650
1233.58645,1.95641
1232.55675,1.95635
1231.52704,1.95628
1230.49734,1.95622
1229.46763,1.95617
1228.43793,1.95613
1227.40822,1.95611
1226.37852,1.95610
1225.34881,1.95611
1224.31911,1.95612
1223.28940,1.95615
1222.25970,1.95617
1221.22999,1.95620
1220.20029,1.95624
1219.17058,1.95629
1218.14088,1.95636
1217.11117,1.95643
1216.08147,1.95651
1215.05176,1.95658
1214.02206,1.95664
1212.99235,1.95669
1211.96265,1.95673
1210.93294,1.95676
1209.90324,1.95678
1208.87354,1.95675
1207.84383,1.95668
1206.81413,1.95657
1205.78442,1.95646
1204.75472,1.95633
1203.72501,1.95619
1202.69531,1.95602
1201.66560,1.95585
1200.63590,1.95565
1199.60619,1.95543
1198.57649,1.95520
1197.54678,1.95498
1196.51708,1.95477
1195.48737,1.95458
1194.45767,1.95440
1193.42796,1.95424
1192.39826,1.95409
1191.36855,1.95394
1190.33885,1.95379
1189.30914,1.95364
1188.27944,1.95348
1187.24973,1.95334
1186.22003,1.95321
1185.19032,1.95308
1184.16062,1.95296
1183.13091,1.95285
1182.10121,1.95276
1181.07150,1.95267
1180.04180,1.95260
1179.01209,1.95253
1177.98239,1.95246
1176.95268,1.95239
1175.92298,1.95232
1174.89327,1.95224
1173.86357,1.95216
1172.83386,1.95207
1171.80416,1.95196
1170.77445,1.95181
1169.74475,1.95162
1168.71504,1.95139
1167.68534,1.95114
1166.65563,1.95084
1165.62593,1.95050
1164.59623,1.95012
1163.56652,1.94971
1162.53682,1.94928
1161.50711,1.94887
1160.47741,1.94847
1159.44770,1.94811
1158.41800,1.94778
1157.38829,1.94748
1156.35859,1.94725
1155.32888,1.94708
1154.29918,1.94699
1153.26947,1.94695
1152.23977,1.94697
1151.21006,1.94704
1150.18036,1.94715
1149.15065,1.94725
1148.12095,1.94733
1147.09124,1.94738
1146.06154,1.94739
1145.03183,1.94737
1144.00213,1.94730
1142.97242,1.94716
1141.94272,1.94691
1140.91301,1.94654
1139.88331,1.94604
1138.85360,1.94544
1137.82390,1.94476
1136.79419,1.94400
1135.76449,1.94316
1134.73478,1.94223
1133.70508,1.94121
1132.67537,1.94012
1131.64567,1.93898
1130.61596,1.93778
1129.58626,1.93652
1128.55655,1.93518
1127.52685,1.93377
1126.49714,1.93226
1125.46744,1.93067
1124.43773,1.92901
1123.40803,1.92732
1122.37832,1.92561
1121.34862,1.92390
1120.31891,1.92222
1119.28921,1.92056
1118.25951,1.91893
1117.22980,1.91733
1116.20010,1.91580
1115.17039,1.91436
1114.14069,1.91303
1113.11098,1.91182
1112.08128,1.91073
1111.05157,1.90975
1110.02187,1.90889
1108.99216,1.90813
1107.96246,1.90745
1106.93275,1.90684
1105.90305,1.90625
1104.87334,1.90564
1103.84364,1.90498
1102.81393,1.90423
1101.78423,1.90340
1100.75452,1.90249
1099.72482,1.90150
1098.69511,1.90043
1097.66541,1.89927
1096.63570,1.89801
1095.60600,1.89668
1094.57629,1.89528
1093.54659,1.89381
1092.51688,1.89233
1091.48718,1.89085
1090.45747,1.88941
1089.42777,1.88804
1088.39806,1.88678
1087.36836,1.88566
1086.33865,1.88469
1085.30895,1.88385
1084.27924,1.88314
1083.24954,1.88257
1082.21983,1.88213
1081.19013,1.88182
1080.16042,1.88160
1079.13072,1.88148
1078.10101,1.88143
1077.07131,1.88145
1076.04160,1.88156
1075.01190,1.88171
1073.98220,1.88190
1072.95249,1.88208
1071.92279,1.88226
1070.89308,1.88241
1069.86338,1.88254
1068.83367,1.88264
1067.80397,1.88271
1066.77426,1.88275
1065.74456,1.88278
1064.71485,1.88279
1063.68515,1.88278
1062.65544,1.88274
1061.62574,1.88263
1060.59603,1.88247
1059.56633,1.88226
1058.53662,1.88202
1057.50692,1.88177
1056.47721,1.88150
1055.44751,1.88121
1054.41780,1.88088
1053.38810,1.88052
1052.35839,1.88016
1051.32869,1.87978
1050.29898,1.87939
1049.26928,1.87898
1048.23957,1.87855
1047.20987,1.87809
1046.18016,1.87761
1045.15046,1.87710
1044.12075,1.87654
1043.09105,1.87594
1042.06134,1.87530
1041.03164,1.87460
1040.00193,1.87385
1038.97223,1.87304
1037.94252,1.87216
1036.91282,1.87122
1035.88311,1.87023
1034.85341,1.86922
1033.82370,1.86819
1032.79400,1.86717
1031.76429,1.86614
1030.73459,1.86508
1029.70489,1.86399
1028.67518,1.86289
1027.64548,1.86182
1026.61577,1.86078
1025.58607,1.85979
1024.55636,1.85883
1023.52666,1.85790
1022.49695,1.85700
1021.46725,1.85611
1020.43754,1.85525
1019.40784,1.85442
1018.37813,1.85362
1017.34843,1.85285
1016.31872,1.85211
1015.28902,1.85142
1014.25931,1.85077
1013.22961,1.85016
1012.19990,1.84960
1011.17020,1.84908
1010.14049,1.84861
1009.11079,1.84816
1008.08108,1.84772
1007.05138,1.84728
1006.02167,1.84683
1004.99197,1.84640
1003.96226,1.84599
1002.93256,1.84562
1001.90285,1.84529
1000.87315,1.84498
999.84344,1.84469
998.81374,1.84444
997.78403,1.84423
996.75433,1.84408
995.72462,1.84401
994.69492,1.84403
993.66521,1.84414
992.63551,1.84435
991.60580,1.84466
990.57610,1.84508
989.54639,1.84559
988.51669,1.84617
987.48698,1.84680
986.45728,1.84747
985.42758,1.84815
984.39787,1.84883
983.36817,1.84949
982.33846,1.85013
981.30876,1.85073
980.27905,1.85129
979.24935,1.85178
978.21964,1.85219
977.18994,1.85253
976.16023,1.85280
975.13053,1.85301
974.10082,1.85321
973.07112,1.85339
972.04141,1.85357
971.01171,1.85375
969.98200,1.85394
968.95230,1.85415
967.92259,1.85439
966.89289,1.85465
965.86318,1.85493
964.83348,1.85521
963.80377,1.85549
962.77407,1.85576
961.74436,1.85600
960.71466,1.85622
959.68495,1.85641
958.65525,1.85656
957.62554,1.85664
956.59584,1.85665
955.56613,1.85658
954.53643,1.85641
953.50672,1.85614
952.47702,1.85580
951.44731,1.85540
950.41761,1.85497
949.38790,1.85454
948.35820,1.85410
947.32849,1.85365
946.29879,1.85320
945.26908,1.85277
944.23938,1.85235
943.20967,1.85198
942.17997,1.85163
941.15026,1.85131
940.12056,1.85101
939.09086,1.85073
938.06115,1.85049
937.03145,1.85029
936.00174,1.85012
934.97204,1.84997
933.94233,1.84983
932.91263,1.84969
931.88292,1.84956
930.85322,1.84943
929.82351,1.84930
928.79381,1.84917
927.76410,1.84906
926.73440,1.84898
925.70469,1.84893
924.67499,1.84892
923.64528,1.84893
922.61558,1.84895
921.58587,1.84899
920.55617,1.84906
919.52646,1.84914
918.49676,1.84923
917.46705,1.84933
916.43735,1.84944
915.40764,1.84957
914.37794,1.84971
913.34823,1.84986
912.31853,1.85000
911.28882,1.85011
910.25912,1.85022
909.22941,1.85035
908.19971,1.85050
907.17000,1.85066
906.14030,1.85083
905.11059,1.85099
904.08089,1.85113
903.05118,1.85125
902.02148,1.85136
900.99177,1.85146
899.96207,1.85155
898.93236,1.85162
897.90266,1.85168
896.87295,1.85172
895.84325,1.85173
894.81355,1.85168
893.78384,1.85159
892.75414,1.85150
891.72443,1.85138
890.69473,1.85123
889.66502,1.85104
888.63532,1.85081
887.60561,1.85054
886.57591,1.85026
885.54620,1.84999
884.51650,1.84974
883.48679,1.84950
882.45709,1.84926
881.42738,1.84901
880.39768,1.84875
879.36797,1.84849
878.33827,1.84826
877.30856,1.84807
876.27886,1.84793
875.24915,1.84782
874.21945,1.84776
873.18974,1.84771
872.16004,1.84767
871.13033,1.84763
870.10063,1.84758
869.07092,1.84757
868.04122,1.84758
867.01151,1.84760
865.98181,1.84761
864.95210,1.84762
863.92240,1.84762
862.89269,1.84762
861.86299,1.84763
860.83328,1.84763
859.80358,1.84762
858.77387,1.84759
857.74417,1.84755
856.71446,1.84752
855.68476,1.84749
854.65505,1.84746
853.62535,1.84740
852.59564,1.84732
851.56594,1.84720
850.53624,1.84704
849.50653,1.84684
848.47683,1.84659
847.44712,1.84631
846.41742,1.84600
845.38771,1.84567
844.35801,1.84531
843.32830,1.84493
842.29860,1.84455
841.26889,1.84418
840.23919,1.84384
839.20948,1.84357
838.17978,1.84335
837.15007,1.84319
836.12037,1.84307
835.09066,1.84298
834.06096,1.84297
833.03125,1.84303
832.00155,1.84313
830.97184,1.84323
829.94214,1.84331
828.91243,1.84337
827.88273,1.84341
826.85302,1.84344
825.82332,1.84344
824.79361,1.84341
823.76391,1.84336
822.73420,1.84328
821.70450,1.84313
820.67479,1.84293
819.64509,1.84269
818.61538,1.84247
817.58568,1.84227
816.55597,1.84210
815.52627,1.84197
814.49656,1.84188
813.46686,1.84179
812.43715,1.84171
811.40745,1.84162
810.37774,1.84151
809.34804,1.84140
808.31833,1.84128
807.28863,1.84118
806.25893,1.84111
805.22922,1.84108
804.19952,1.84110
803.16981,1.84115
802.14011,1.84123
801.11040,1.84132
800.08070,1.84142
799.05099,1.84151
798.02129,1.84158
796.99158,1.84164
795.96188,1.84169
794.93217,1.84178
793.90247,1.84190
792.87276,1.84200
791.84306,1.84207
790.81335,1.84210
789.78365,1.84208
788.75394,1.84198
787.72424,1.84180
786.69453,1.84155
785.66483,1.84126
784.63512,1.84097
783.60542,1.84074
782.57571,1.84060
781.54601,1.84057
780.51630,1.84063
779.48660,1.84076
778.45689,1.84094
777.42719,1.84113
776.39748,1.84131
775.36778,1.84147
774.33807,1.84162
773.30837,1.84176
772.27866,1.84190
771.24896,1.84203
770.21925,1.84215
769.18955,1.84224
768.15984,1.84228
767.13014,1.84224
766.10043,1.84213
765.07073,1.84195
764.04102,1.84170
763.01132,1.84140
761.98161,1.84107
760.95191,1.84074
759.92221,1.84047
758.89250,1.84028
757.86280,1.84016
756.83309,1.84009
755.80339,1.84006
754.77368,1.84006
753.74398,1.84005
752.71427,1.84004
751.68457,1.84006
750.65486,1.84013
749.62516,1.84026
748.59545,1.84046
747.56575,1.84074
746.53604,1.84112
745.50634,1.84159
744.47663,1.84217
743.44693,1.84286
742.41722,1.84365
741.38752,1.84456
740.35781,1.84557
739.32811,1.84658
738.29840,1.84749
737.26870,1.84822
736.23899,1.84871
735.20929,1.84890
734.17958,1.84869
733.14988,1.84801
732.12017,1.84682
731.09047,1.84510
730.06076,1.84284
729.03106,1.84009
728.00135,1.83691
726.97165,1.83334
725.94194,1.82946
724.91224,1.82538
723.88253,1.82126
722.85283,1.81725
721.82312,1.81351
720.79342,1.81017
719.76371,1.80740
718.73401,1.80529
717.70430,1.80393
716.67460,1.80330
715.64490,1.80334
714.61519,1.80395
713.58549,1.80506
712.55578,1.80660
711.52608,1.80848
710.49637,1.81060
709.46667,1.81284
708.43696,1.81506
707.40726,1.81719
706.37755,1.81914
705.34785,1.82088
704.31814,1.82239
703.28844,1.82363
702.25873,1.82453
701.22903,1.82512
700.19932,1.82543
699.16962,1.82548
698.13991,1.82529
697.11021,1.82488
696.08050,1.82430
695.05080,1.82362
694.02109,1.82288
692.99139,1.82210
691.96168,1.82131
690.93198,1.82053
689.90227,1.81978
688.87257,1.81907
687.84286,1.81838
686.81316,1.81772
685.78345,1.81709
684.75375,1.81652
683.72404,1.81601
682.69434,1.81560
681.66463,1.81531
680.63493,1.81517
679.60522,1.81520
678.57552,1.81535
677.54581,1.81561
676.51611,1.81594
675.48640,1.81628
674.45670,1.81653
673.42699,1.81666
672.39729,1.81673
671.36759,1.81683
670.33788,1.81699
669.30818,1.81721
668.27847,1.81744
667.24877,1.81762
666.21906,1.81771
665.18936,1.81767
664.15965,1.81751
663.12995,1.81724
662.10024,1.81690
661.07054,1.81650
660.04083,1.81609
659.01113,1.81568
657.98142,1.81528
656.95172,1.81488
655.92201,1.81447
654.89231,1.81403
653.86260,1.81355
652.83290,1.81302
651.80319,1.81242
650.77349,1.81177
649.74378,1.81111
648.71408,1.81051
647.68437,1.81003
646.65467,1.80969
645.62496,1.80940
644.59526,1.80908
643.56555,1.80865
642.53585,1.80811
641.50614,1.80753
640.47644,1.80699
639.44673,1.80653
638.41703,1.80612
637.38732,1.80573
636.35762,1.80537
635.32791,1.80508
634.29821,1.80489
633.26850,1.80476
632.23880,1.80464
631.20909,1.80450
630.17939,1.80435
629.14968,1.80429
628.11998,1.80439
627.09028,1.80465
626.06057,1.80500
625.03087,1.80536
624.00116,1.80567
622.97146,1.80587
621.94175,1.80593
620.91205,1.80583
619.88234,1.80559
618.85264,1.80522
617.82293,1.80478
616.79323,1.80434
615.76352,1.80388
614.73382,1.80338
613.70411,1.80282
612.67441,1.80222
611.64470,1.80164
610.61500,1.80164
609.58529,1.80164
608.55559,1.80164
607.52588,1.80164
606.49618,1.80164
605.46647,1.80164
604.43677,1.80164
603.40706,1.80164
602.37736,1.80164
601.34765,1.80164
600.31795,1.80164
599.28824,1.80164
