5998.03096,1.72191
5997.00125,1.72191
5995.97155,1.72191
5994.94184,1.72191
5993.91214,1.72191
5992.88243,1.72191
5991.85273,1.72191
5990.82302,1.72191
5989.79332,1.72191
5988.76361,1.72191
5987.73391,1.72191
5986.70420,1.72191
5985.67450,1.72191
5984.64479,1.72450
5983.61509,1.72718
5982.58538,1.72991
5981.55568,1.73253
5980.52597,1.73479
5979.49627,1.73649
5978.46656,1.73751
5977.43686,1.73776
5976.40715,1.73705
5975.37745,1.73528
5974.34774,1.73255
5973.31804,1.72902
5972.28833,1.72485
5971.25863,1.72075
5970.22892,1.71684
5969.19922,1.71309
5968.16951,1.70951
5967.13981,1.70629
5966.11010,1.70356
5965.08040,1.70150
5964.05069,1.70030
5963.02099,1.69997
5961.99128,1.70031
5960.96158,1.70113
5959.93187,1.70245
5958.90217,1.70417
5957.87247,1.70608
5956.84276,1.70791
5955.81306,1.70940
5954.78335,1.71042
5953.75365,1.71095
5952.72394,1.71097
5951.69424,1.71044
5950.66453,1.70944
5949.63483,1.70820
5948.60512,1.70688
5947.57542,1.70544
5946.54571,1.70376
5945.51601,1.70180
5944.48630,1.69975
5943.45660,1.69788
5942.42689,1.69640
5941.39719,1.69545
5940.36748,1.69505
5939.33778,1.69509
5938.30807,1.69540
5937.27837,1.69587
5936.24866,1.69653
5935.21896,1.69748
5934.18925,1.69869
5933.15955,1.70004
5932.12984,1.70151
5931.10014,1.70312
5930.07043,1.70482
5929.04073,1.70669
5928.01102,1.70880
5926.98132,1.71097
5925.95161,1.71307
5924.92191,1.71512
5923.89220,1.71708
5922.86250,1.71884
5921.83279,1.72038
5920.80309,1.72186
5919.77338,1.72340
5918.74368,1.72499
5917.71397,1.72654
5916.68427,1.72784
5915.65456,1.72873
5914.62486,1.72924
5913.59515,1.72948
5912.56545,1.72952
5911.53575,1.72933
5910.50604,1.72891
5909.47634,1.72819
5908.44663,1.72722
5907.41693,1.72619
5906.38722,1.72513
5905.35752,1.72402
5904.32781,1.72295
5903.29811,1.72197
5902.26840,1.72101
5901.23870,1.72015
5900.20899,1.71951
5899.17929,1.71914
5898.14958,1.71897
5897.11988,1.71898
5896.09017,1.71918
5895.06047,1.71951
5894.03076,1.71988
5893.00106,1.72022
5891.97135,1.72055
5890.94165,1.72110
5889.91194,1.72197
5888.88224,1.72299
5887.85253,1.72400
5886.82283,1.72494
5885.79312,1.72581
5884.76342,1.72663
5883.73371,1.72743
5882.70401,1.72824
5881.67430,1.72903
5880.64460,1.72987
5879.61489,1.73088
5878.58519,1.73204
5877.55548,1.73335
5876.52578,1.73482
5875.49607,1.73644
5874.46637,1.73804
5873.43666,1.73942
5872.40696,1.74045
5871.37725,1.74116
5870.34755,1.74160
5869.31784,1.74185
5868.28814,1.74200
5867.25844,1.74221
5866.22873,1.74252
5865.19903,1.74273
5864.16932,1.74270
5863.13962,1.74254
5862.10991,1.74237
5861.08021,1.74221
5860.05050,1.74208
5859.02080,1.74206
5857.99109,1.74223
5856.96139,1.74272
5855.93168,1.74352
5854.90198,1.74450
5853.87227,1.74559
5852.84257,1.74685
5851.81286,1.74824
5850.78316,1.74964
5849.75345,1.75095
5848.72375,1.75210
5847.69404,1.75314
5846.66434,1.75410
5845.63463,1.75502
5844.60493,1.75595
5843.57522,1.75692
5842.54552,1.75795
5841.51581,1.75893
5840.48611,1.75970
5839.45640,1.76026
5838.42670,1.76071
5837.39699,1.76112
5836.36729,1.76147
5835.33758,1.76166
5834.30788,1.76161
5833.27817,1.76135
5832.24847,1.76093
5831.21876,1.76028
5830.18906,1.75942
5829.15935,1.75846
5828.12965,1.75743
5827.09994,1.75632
5826.07024,1.75526
5825.04053,1.75439
5824.01083,1.75378
5822.98113,1.75344
5821.95142,1.75336
5820.92172,1.75351
5819.89201,1.75386
5818.86231,1.75437
5817.83260,1.75495
5816.80290,1.75547
5815.77319,1.75585
5814.74349,1.75611
5813.71378,1.75633
5812.68408,1.75650
5811.65437,1.75648
5810.62467,1.75613
5809.59496,1.75552
5808.56526,1.75485
5807.53555,1.75422
5806.50585,1.75360
5805.47614,1.75299
5804.44644,1.75242
5803.41673,1.75193
5802.38703,1.75168
5801.35732,1.75186
5800.32762,1.75253
5799.29791,1.75362
5798.26821,1.75505
5797.23850,1.75667
5796.20880,1.75829
5795.17909,1.75981
5794.14939,1.76120
5793.11968,1.76242
5792.08998,1.76345
5791.06027,1.76437
5790.03057,1.76529
5789.00086,1.76622
5787.97116,1.76708
5786.94145,1.76774
5785.91175,1.76815
5784.88204,1.76842
5783.85234,1.76869
5782.82263,1.76892
5781.79293,1.76899
5780.76322,1.76888
5779.73352,1.76865
5778.70382,1.76841
5777.67411,1.76821
5776.64441,1.76804
5775.61470,1.76786
5774.58500,1.76760
5773.55529,1.76712
5772.52559,1.76630
5771.49588,1.76511
5770.46618,1.76367
5769.43647,1.76213
5768.40677,1.76062
5767.37706,1.75927
5766.34736,1.75818
5765.31765,1.75732
5764.28795,1.75657
5763.25824,1.75579
5762.22854,1.75494
5761.19883,1.75409
5760.16913,1.75338
5759.13942,1.75283
5758.10972,1.75238
5757.08001,1.75199
5756.05031,1.75165
5755.02060,1.75139
5753.99090,1.75117
5752.96119,1.75089
5751.93149,1.75053
5750.90178,1.75014
5749.87208,1.74970
5748.84237,1.74919
5747.81267,1.74860
5746.78296,1.74801
5745.75326,1.74750
5744.72355,1.74716
5743.69385,1.74700
5742.66414,1.74698
5741.63444,1.74693
5740.60473,1.74674
5739.57503,1.74642
5738.54532,1.74596
5737.51562,1.74544
5736.48591,1.74497
5735.45621,1.74468
5734.42650,1.74463
5733.39680,1.74480
5732.36710,1.74511
5731.33739,1.74551
5730.30769,1.74595
5729.27798,1.74640
5728.24828,1.74684
5727.21857,1.74733
5726.18887,1.74790
5725.15916,1.74846
5724.12946,1.74886
5723.09975,1.74913
5722.07005,1.74934
5721.04034,1.74955
5720.01064,1.74977
5718.98093,1.74996
5717.95123,1.74999
5716.92152,1.74969
5715.89182,1.74911
5714.86211,1.74848
5713.83241,1.74797
5712.80270,1.74770
5711.77300,1.74777
5710.74329,1.74817
5709.71359,1.74877
5708.68388,1.74943
5707.65418,1.75008
5706.62447,1.75072
5705.59477,1.75126
5704.56506,1.75164
5703.53536,1.75183
5702.50565,1.75186
5701.47595,1.75168
5700.44624,1.75117
5699.41654,1.75037
5698.38683,1.74948
5697.35713,1.74860
5696.32742,1.74773
5695.29772,1.74683
5694.26801,1.74591
5693.23831,1.74493
5692.20860,1.74403
5691.17890,1.74354
5690.14919,1.74369
5689.11949,1.74449
5688.08979,1.74581
5687.06008,1.74751
5686.03038,1.74948
5685.00067,1.75166
5683.97097,1.75405
5682.94126,1.75658
5681.91156,1.75910
5680.88185,1.76147
5679.85215,1.76364
5678.82244,1.76545
5677.79274,1.76676
5676.76303,1.76745
5675.73333,1.76745
5674.70362,1.76682
5673.67392,1.76572
5672.64421,1.76418
5671.61451,1.76217
5670.58480,1.75974
5669.55510,1.75711
5668.52539,1.75458
5667.49569,1.75227
5666.46598,1.75017
5665.43628,1.74825
5664.40657,1.74648
5663.37687,1.74487
5662.34716,1.74346
5661.31746,1.74233
5660.28775,1.74153
5659.25805,1.74106
5658.22834,1.74082
5657.19864,1.74073
5656.16893,1.74082
5655.13923,1.74097
5654.10952,1.74099
5653.07982,1.74083
5652.05011,1.74057
5651.02041,1.74018
5649.99070,1.73972
5648.96100,1.73929
5647.93129,1.73885
5646.90159,1.73839
5645.87188,1.73801
5644.84218,1.73787
5643.81248,1.73791
5642.78277,1.73789
5641.75307,1.73771
5640.72336,1.73745
5639.69366,1.73717
5638.66395,1.73693
5637.63425,1.73678
5636.60454,1.73677
5635.57484,1.73685
5634.54513,1.73695
5633.51543,1.73705
5632.48572,1.73712
5631.45602,1.73715
5630.42631,1.73704
5629.39661,1.73676
5628.36690,1.73639
5627.33720,1.73590
5626.30749,1.73521
5625.27779,1.73439
5624.24808,1.73360
5623.21838,1.73278
5622.18867,1.73191
5621.15897,1.73107
5620.12926,1.73029
5619.09956,1.72953
5618.06985,1.72874
5617.04015,1.72795
5616.01044,1.72723
5614.98074,1.72668
5613.95103,1.72648
5612.92133,1.72667
5611.89162,1.72711
5610.86192,1.72762
5609.83221,1.72816
5608.80251,1.72880
5607.77280,1.72953
5606.74310,1.73028
5605.71339,1.73100
5604.68369,1.73168
5603.65398,1.73228
5602.62428,1.73271
5601.59457,1.73294
5600.56487,1.73310
5599.53517,1.73310
5598.50546,1.73275
5597.47576,1.73211
5596.44605,1.73141
5595.41635,1.73071
5594.38664,1.73000
5593.35694,1.72924
5592.32723,1.72843
5591.29753,1.72772
5590.26782,1.72737
5589.23812,1.72746
5588.20841,1.72785
5587.17871,1.72842
5586.14900,1.72914
5585.11930,1.73004
5584.08959,1.73111
5583.05989,1.73222
5582.03018,1.73319
5581.00048,1.73399
5579.97077,1.73459
5578.94107,1.73500
5577.91136,1.73525
5576.88166,1.73540
5575.85195,1.73542
5574.82225,1.73519
5573.79254,1.73480
5572.76284,1.73451
5571.73313,1.73436
5570.70343,1.73426
5569.67372,1.73414
5568.64402,1.73408
5567.61431,1.73416
5566.58461,1.73453
5565.55490,1.73527
5564.52520,1.73625
5563.49549,1.73732
5562.46579,1.73842
5561.43608,1.73942
5560.40638,1.74016
5559.37667,1.74059
5558.34697,1.74069
5557.31726,1.74048
5556.28756,1.74001
5555.25785,1.73944
5554.22815,1.73890
5553.19845,1.73847
5552.16874,1.73814
5551.13904,1.73784
5550.10933,1.73756
5549.07963,1.73738
5548.04992,1.73725
5547.02022,1.73702
5545.99051,1.73667
5544.96081,1.73629
5543.93110,1.73590
5542.90140,1.73541
5541.87169,1.73479
5540.84199,1.73400
5539.81228,1.73297
5538.78258,1.73170
5537.75287,1.73020
5536.72317,1.72841
5535.69346,1.72644
5534.66376,1.72450
5533.63405,1.72269
5532.60435,1.72105
5531.57464,1.71965
5530.54494,1.71860
5529.51523,1.71792
5528.48553,1.71759
5527.45582,1.71752
5526.42612,1.71775
5525.39641,1.71829
5524.36671,1.71907
5523.33700,1.71994
5522.30730,1.72080
5521.27759,1.72167
5520.24789,1.72249
5519.21818,1.72316
5518.18848,1.72365
5517.15877,1.72402
5516.12907,1.72429
5515.09936,1.72449
5514.06966,1.72465
5513.03995,1.72481
5512.01025,1.72498
5510.98054,1.72521
5509.95084,1.72555
5508.92114,1.72593
5507.89143,1.72635
5506.86173,1.72676
5505.83202,1.72710
5504.80232,1.72733
5503.77261,1.72747
5502.74291,1.72755
5501.71320,1.72757
5500.68350,1.72751
5499.65379,1.72730
5498.62409,1.72691
5497.59438,1.72639
5496.56468,1.72579
5495.53497,1.72511
5494.50527,1.72437
5493.47556,1.72362
5492.44586,1.72291
5491.41615,1.72224
5490.38645,1.72171
5489.35674,1.72138
5488.32704,1.72119
5487.29733,1.72111
5486.26763,1.72115
5485.23792,1.72135
5484.20822,1.72169
5483.17851,1.72209
5482.14881,1.72248
5481.11910,1.72283
5480.08940,1.72316
5479.05969,1.72351
5478.02999,1.72381
5477.00028,1.72404
5475.97058,1.72422
5474.94087,1.72445
5473.91117,1.72470
5472.88146,1.72489
5471.85176,1.72494
5470.82205,1.72483
5469.79235,1.72455
5468.76264,1.72405
5467.73294,1.72333
5466.70323,1.72250
5465.67353,1.72164
5464.64383,1.72069
5463.61412,1.71962
5462.58442,1.71858
5461.55471,1.71774
5460.52501,1.71715
5459.49530,1.71674
5458.46560,1.71647
5457.43589,1.71639
5456.40619,1.71658
5455.37648,1.71707
5454.34678,1.71780
5453.31707,1.71874
5452.28737,1.71999
5451.25766,1.72164
5450.22796,1.72362
5449.19825,1.72564
5448.16855,1.72751
5447.13884,1.72919
5446.10914,1.73062
5445.07943,1.73167
5444.04973,1.73229
5443.02002,1.73252
5441.99032,1.73239
5440.96061,1.73190
5439.93091,1.73108
5438.90120,1.73001
5437.87150,1.72871
5436.84179,1.72719
5435.81209,1.72536
5434.78238,1.72314
5433.75268,1.72067
5432.72297,1.71823
5431.69327,1.71597
5430.66356,1.71389
5429.63386,1.71209
5428.60415,1.71075
5427.57445,1.70994
5426.54474,1.70951
5425.51504,1.70928
5424.48533,1.70916
5423.45563,1.70919
5422.42592,1.70941
5421.39622,1.70979
5420.36652,1.71027
5419.33681,1.71089
5418.30711,1.71167
5417.27740,1.71256
5416.24770,1.71352
5415.21799,1.71444
5414.18829,1.71516
5413.15858,1.71556
5412.12888,1.71569
5411.09917,1.71556
5410.06947,1.71522
5409.03976,1.71487
5408.01006,1.71464
5406.98035,1.71445
5405.95065,1.71432
5404.92094,1.71427
5403.89124,1.71424
5402.86153,1.71410
5401.83183,1.71381
5400.80212,1.71344
5399.77242,1.71307
5398.74271,1.71272
5397.71301,1.71238
5396.68330,1.71206
5395.65360,1.71182
5394.62389,1.71169
5393.59419,1.71160
5392.56448,1.71152
5391.53478,1.71145
5390.50507,1.71140
5389.47537,1.71136
5388.44566,1.71135
5387.41596,1.71145
5386.38625,1.71163
5385.35655,1.71191
5384.32684,1.71227
5383.29714,1.71264
5382.26743,1.71300
5381.23773,1.71334
5380.20802,1.71364
5379.17832,1.71389
5378.14861,1.71409
5377.11891,1.71421
5376.08920,1.71422
5375.05950,1.71413
5374.02980,1.71389
5373.00009,1.71345
5371.97039,1.71286
5370.94068,1.71223
5369.91098,1.71155
5368.88127,1.71083
5367.85157,1.71012
5366.82186,1.70949
5365.79216,1.70896
5364.76245,1.70855
5363.73275,1.70832
5362.70304,1.70826
5361.67334,1.70829
5360.64363,1.70839
5359.61393,1.70854
5358.58422,1.70880
5357.55452,1.70924
5356.52481,1.70983
5355.49511,1.71053
5354.46540,1.71127
5353.43570,1.71192
5352.40599,1.71245
5351.37629,1.71294
5350.34658,1.71344
5349.31688,1.71382
5348.28717,1.71406
5347.25747,1.71426
5346.22776,1.71451
5345.19806,1.71473
5344.16835,1.71484
5343.13865,1.71488
5342.10894,1.71485
5341.07924,1.71480
5340.04953,1.71472
5339.01983,1.71455
5337.99012,1.71418
5336.96042,1.71364
5335.93071,1.71300
5334.90101,1.71231
5333.87130,1.71158
5332.84160,1.71077
5331.81189,1.70987
5330.78219,1.70897
5329.75249,1.70814
5328.72278,1.70742
5327.69308,1.70695
5326.66337,1.70685
5325.63367,1.70704
5324.60396,1.70737
5323.57426,1.70783
5322.54455,1.70851
5321.51485,1.70939
5320.48514,1.71036
5319.45544,1.71135
5318.42573,1.71235
5317.39603,1.71333
5316.36632,1.71427
5315.33662,1.71514
5314.30691,1.71586
5313.27721,1.71645
5312.24750,1.71692
5311.21780,1.71729
5310.18809,1.71753
5309.15839,1.71769
5308.12868,1.71780
5307.09898,1.71797
5306.06927,1.71830
5305.03957,1.71876
5304.00986,1.71931
5302.98016,1.72003
5301.95045,1.72089
5300.92075,1.72174
5299.89104,1.72252
5298.86134,1.72332
5297.83163,1.72414
5296.80193,1.72490
5295.77222,1.72557
5294.74252,1.72615
5293.71281,1.72665
5292.68311,1.72708
5291.65340,1.72745
5290.62370,1.72775
5289.59399,1.72803
5288.56429,1.72832
5287.53458,1.72870
5286.50488,1.72925
5285.47518,1.72994
5284.44547,1.73070
5283.41577,1.73150
5282.38606,1.73238
5281.35636,1.73332
5280.32665,1.73427
5279.29695,1.73524
5278.26724,1.73629
5277.23754,1.73737
5276.20783,1.73841
5275.17813,1.73943
5274.14842,1.74038
5273.11872,1.74122
5272.08901,1.74200
5271.05931,1.74275
5270.02960,1.74340
5268.99990,1.74390
5267.97019,1.74430
5266.94049,1.74470
5265.91078,1.74521
5264.88108,1.74591
5263.85137,1.74680
5262.82167,1.74784
5261.79196,1.74899
5260.76226,1.75015
5259.73255,1.75127
5258.70285,1.75235
5257.67314,1.75339
5256.64344,1.75439
5255.61373,1.75535
5254.58403,1.75625
5253.55432,1.75705
5252.52462,1.75767
5251.49491,1.75810
5250.46521,1.75839
5249.43550,1.75856
5248.40580,1.75865
5247.37609,1.75866
5246.34639,1.75854
5245.31668,1.75826
5244.28698,1.75792
5243.25727,1.75774
5242.22757,1.75789
5241.19786,1.75841
5240.16816,1.75925
5239.13846,1.76031
5238.10875,1.76157
5237.07905,1.76301
5236.04934,1.76456
5235.01964,1.76611
5233.98993,1.76763
5232.96023,1.76911
5231.93052,1.77062
5230.90082,1.77209
5229.87111,1.77335
5228.84141,1.77436
5227.81170,1.77517
5226.78200,1.77583
5225.75229,1.77638
5224.72259,1.77681
5223.69288,1.77717
5222.66318,1.77746
5221.63347,1.77766
5220.60377,1.77785
5219.57406,1.77815
5218.54436,1.77869
5217.51465,1.77952
5216.48495,1.78053
5215.45524,1.78156
5214.42554,1.78261
5213.39583,1.78369
5212.36613,1.78477
5211.33642,1.78580
5210.30672,1.78687
5209.27701,1.78807
5208.24731,1.78937
5207.21760,1.79065
5206.18790,1.79174
5205.15819,1.79259
5204.12849,1.79331
5203.09878,1.79397
5202.06908,1.79463
5201.03937,1.79535
5200.00967,1.79623
5198.97996,1.79727
5197.95026,1.79841
5196.92055,1.79960
5195.89085,1.80087
5194.86115,1.80222
5193.83144,1.80363
5192.80174,1.80506
5191.77203,1.80646
5190.74233,1.80781
5189.71262,1.80913
5188.68292,1.81041
5187.65321,1.81166
5186.62351,1.81293
5185.59380,1.81421
5184.56410,1.81528
5183.53439,1.81584
5182.50469,1.81585
5181.47498,1.81543
5180.44528,1.81475
5179.41557,1.81387
5178.38587,1.81286
5177.35616,1.81181
5176.32646,1.81083
5175.29675,1.81000
5174.26705,1.80931
5173.23734,1.80868
5172.20764,1.80809
5171.17793,1.80750
5170.14823,1.80692
5169.11852,1.80643
5168.08882,1.80614
5167.05911,1.80610
5166.02941,1.80629
5164.99970,1.80661
5163.97000,1.80708
5162.94029,1.80771
5161.91059,1.80837
5160.88088,1.80889
5159.85118,1.80907
5158.82147,1.80893
5157.79177,1.80867
5156.76206,1.80842
5155.73236,1.80819
5154.70265,1.80794
5153.67295,1.80769
5152.64324,1.80751
5151.61354,1.80750
5150.58384,1.80768
5149.55413,1.80791
5148.52443,1.80802
5147.49472,1.80793
5146.46502,1.80770
5145.43531,1.80745
5144.40561,1.80731
5143.37590,1.80736
5142.34620,1.80759
5141.31649,1.80793
5140.28679,1.80836
5139.25708,1.80890
5138.22738,1.80946
5137.19767,1.80988
5136.16797,1.81014
5135.13826,1.81033
5134.10856,1.81055
5133.07885,1.81081
5132.04915,1.81108
5131.01944,1.81129
5129.98974,1.81146
5128.96003,1.81168
5127.93033,1.81209
5126.90062,1.81270
5125.87092,1.81337
5124.84121,1.81392
5123.81151,1.81424
5122.78180,1.81434
5121.75210,1.81436
5120.72239,1.81445
5119.69269,1.81467
5118.66298,1.81496
5117.63328,1.81526
5116.60357,1.81551
5115.57387,1.81569
5114.54416,1.81577
5113.51446,1.81563
5112.48475,1.81532
5111.45505,1.81500
5110.42534,1.81470
5109.39564,1.81430
5108.36593,1.81372
5107.33623,1.81302
5106.30653,1.81233
5105.27682,1.81185
5104.24712,1.81169
5103.21741,1.81183
5102.18771,1.81208
5101.15800,1.81227
5100.12830,1.81230
5099.09859,1.81210
5098.06889,1.81177
5097.03918,1.81143
5096.00948,1.81109
5094.97977,1.81067
5093.95007,1.81008
5092.92036,1.80938
5091.89066,1.80866
5090.86095,1.80791
5089.83125,1.80708
5088.80154,1.80618
5087.77184,1.80528
5086.74213,1.80439
5085.71243,1.80345
5084.68272,1.80245
5083.65302,1.80151
5082.62331,1.80079
5081.59361,1.80041
5080.56390,1.80037
5079.53420,1.80060
5078.50449,1.80104
5077.47479,1.80159
5076.44508,1.80217
5075.41538,1.80268
5074.38567,1.80317
5073.35597,1.80368
5072.32626,1.80415
5071.29656,1.80445
5070.26685,1.80457
5069.23715,1.80461
5068.20744,1.80460
5067.17774,1.80446
5066.14803,1.80406
5065.11833,1.80337
5064.08862,1.80246
5063.05892,1.80137
5062.02921,1.80012
5060.99951,1.79873
5059.96981,1.79724
5058.94010,1.79571
5057.91040,1.79423
5056.88069,1.79289
5055.85099,1.79178
5054.82128,1.79101
5053.79158,1.79060
5052.76187,1.79049
5051.73217,1.79061
5050.70246,1.79092
5049.67276,1.79139
5048.64305,1.79189
5047.61335,1.79232
5046.58364,1.79269
5045.55394,1.79309
5044.52423,1.79353
5043.49453,1.79393
5042.46482,1.79423
5041.43512,1.79446
5040.40541,1.79462
5039.37571,1.79472
5038.34600,1.79474
5037.31630,1.79466
5036.28659,1.79450
5035.25689,1.79424
5034.22718,1.79397
5033.19748,1.79377
5032.16777,1.79370
5031.13807,1.79378
5030.10836,1.79403
5029.07866,1.79440
5028.04895,1.79487
5027.01925,1.79532
5025.98954,1.79559
5024.95984,1.79558
5023.93013,1.79530
5022.90043,1.79483
5021.87072,1.79427
5020.84102,1.79372
5019.81131,1.79322
5018.78161,1.79275
5017.75190,1.79229
5016.72220,1.79185
5015.69250,1.79146
5014.66279,1.79113
5013.63309,1.79086
5012.60338,1.79066
5011.57368,1.79052
5010.54397,1.79046
5009.51427,1.79048
5008.48456,1.79062
5007.45486,1.79088
5006.42515,1.79128
5005.39545,1.79180
5004.36574,1.79233
5003.33604,1.79273
5002.30633,1.79291
5001.27663,1.79281
5000.24692,1.79251
4999.21722,1.79214
4998.18751,1.79180
4997.15781,1.79150
4996.12810,1.79129
4995.09840,1.79117
4994.06869,1.79109
4993.03899,1.79101
4992.00928,1.79096
4990.97958,1.79092
4989.94987,1.79086
4988.92017,1.79075
4987.89046,1.79064
4986.86076,1.79053
4985.83105,1.79041
4984.80135,1.79032
4983.77164,1.79024
4982.74194,1.79015
4981.71223,1.78998
4980.68253,1.78964
4979.65282,1.78914
4978.62312,1.78856
4977.59341,1.78798
4976.56371,1.78743
4975.53400,1.78699
4974.50430,1.78672
4973.47459,1.78655
4972.44489,1.78642
4971.41519,1.78640
4970.38548,1.78648
4969.35578,1.78657
4968.32607,1.78658
4967.29637,1.78651
4966.26666,1.78635
4965.23696,1.78612
4964.20725,1.78584
4963.17755,1.78547
4962.14784,1.78499
4961.11814,1.78443
4960.08843,1.78380
4959.05873,1.78308
4958.02902,1.78225
4956.99932,1.78136
4955.96961,1.78046
4954.93991,1.77964
4953.91020,1.77899
4952.88050,1.77853
4951.85079,1.77823
4950.82109,1.77811
4949.79138,1.77812
4948.76168,1.77819
4947.73197,1.77836
4946.70227,1.77871
4945.67256,1.77917
4944.64286,1.77964
4943.61315,1.78014
4942.58345,1.78071
4941.55374,1.78131
4940.52404,1.78183
4939.49433,1.78219
4938.46463,1.78234
4937.43492,1.78237
4936.40522,1.78233
4935.37551,1.78221
4934.34581,1.78201
4933.31610,1.78170
4932.28640,1.78128
4931.25669,1.78077
4930.22699,1.78024
4929.19728,1.77977
4928.16758,1.77942
4927.13788,1.77916
4926.10817,1.77900
4925.07847,1.77896
4924.04876,1.77908
4923.01906,1.77941
4921.98935,1.77992
4920.95965,1.78057
4919.92994,1.78132
4918.90024,1.78221
4917.87053,1.78317
4916.84083,1.78406
4915.81112,1.78478
4914.78142,1.78532
4913.75171,1.78574
4912.72201,1.78610
4911.69230,1.78637
4910.66260,1.78642
4909.63289,1.78619
4908.60319,1.78566
4907.57348,1.78487
4906.54378,1.78396
4905.51407,1.78307
4904.48437,1.78233
4903.45466,1.78174
4902.42496,1.78128
4901.39525,1.78096
4900.36555,1.78087
4899.33584,1.78101
4898.30614,1.78132
4897.27643,1.78173
4896.24673,1.78227
4895.21702,1.78302
4894.18732,1.78399
4893.15761,1.78505
4892.12791,1.78601
4891.09820,1.78678
4890.06850,1.78737
4889.03879,1.78778
4888.00909,1.78798
4886.97938,1.78787
4885.94968,1.78740
4884.91997,1.78666
4883.89027,1.78574
4882.86056,1.78474
4881.83086,1.78376
4880.80116,1.78287
4879.77145,1.78206
4878.74175,1.78132
4877.71204,1.78069
4876.68234,1.78021
4875.65263,1.77996
4874.62293,1.77993
4873.59322,1.78008
4872.56352,1.78042
4871.53381,1.78100
4870.50411,1.78179
4869.47440,1.78265
4868.44470,1.78338
4867.41499,1.78394
4866.38529,1.78441
4865.35558,1.78488
4864.32588,1.78537
4863.29617,1.78583
4862.26647,1.78624
4861.23676,1.78664
4860.20706,1.78708
4859.17735,1.78757
4858.14765,1.78813
4857.11794,1.78872
4856.08824,1.78933
4855.05853,1.78993
4854.02883,1.79053
4852.99912,1.79119
4851.96942,1.79192
4850.93971,1.79269
4849.91001,1.79338
4848.88030,1.79390
4847.85060,1.79417
4846.82089,1.79412
4845.79119,1.79374
4844.76148,1.79302
4843.73178,1.79201
4842.70207,1.79085
4841.67237,1.78966
4840.64266,1.78842
4839.61296,1.78710
4838.58325,1.78568
4837.55355,1.78425
4836.52385,1.78293
4835.49414,1.78176
4834.46444,1.78077
4833.43473,1.78000
4832.40503,1.77946
4831.37532,1.77917
4830.34562,1.77911
4829.31591,1.77932
4828.28621,1.77981
4827.25650,1.78048
4826.22680,1.78127
4825.19709,1.78213
4824.16739,1.78302
4823.13768,1.78387
4822.10798,1.78465
4821.07827,1.78540
4820.04857,1.78617
4819.01886,1.78690
4817.98916,1.78756
4816.95945,1.78804
4815.92975,1.78827
4814.90004,1.78824
4813.87034,1.78802
4812.84063,1.78771
4811.81093,1.78735
4810.78122,1.78696
4809.75152,1.78655
4808.72181,1.78617
4807.69211,1.78583
4806.66240,1.78549
4805.63270,1.78513
4804.60299,1.78478
4803.57329,1.78444
4802.54358,1.78417
4801.51388,1.78406
4800.48417,1.78414
4799.45447,1.78436
4798.42476,1.78470
4797.39506,1.78521
4796.36535,1.78590
4795.33565,1.78671
4794.30594,1.78751
4793.27624,1.78822
4792.24654,1.78882
4791.21683,1.78931
4790.18713,1.78976
4789.15742,1.79019
4788.12772,1.79064
4787.09801,1.79107
4786.06831,1.79149
4785.03860,1.79191
4784.00890,1.79230
4782.97919,1.79260
4781.94949,1.79280
4780.91978,1.79287
4779.89008,1.79280
4778.86037,1.79262
4777.83067,1.79244
4776.80096,1.79232
4775.77126,1.79222
4774.74155,1.79210
4773.71185,1.79195
4772.68214,1.79179
4771.65244,1.79159
4770.62273,1.79131
4769.59303,1.79095
4768.56332,1.79050
4767.53362,1.78999
4766.50391,1.78946
4765.47421,1.78897
4764.44450,1.78852
4763.41480,1.78813
4762.38509,1.78783
4761.35539,1.78763
4760.32568,1.78748
4759.29598,1.78735
4758.26627,1.78725
4757.23657,1.78715
4756.20686,1.78708
4755.17716,1.78706
4754.14745,1.78715
4753.11775,1.78742
4752.08804,1.78784
4751.05834,1.78835
4750.02863,1.78885
4748.99893,1.78932
4747.96923,1.78980
4746.93952,1.79033
4745.90982,1.79090
4744.88011,1.79150
4743.85041,1.79209
4742.82070,1.79268
4741.79100,1.79325
4740.76129,1.79380
4739.73159,1.79428
4738.70188,1.79467
4737.67218,1.79497
4736.64247,1.79513
4735.61277,1.79515
4734.58306,1.79507
4733.55336,1.79495
4732.52365,1.79487
4731.49395,1.79486
4730.46424,1.79489
4729.43454,1.79492
4728.40483,1.79497
4727.37513,1.79503
4726.34542,1.79502
4725.31572,1.79487
4724.28601,1.79467
4723.25631,1.79450
4722.22660,1.79441
4721.19690,1.79436
4720.16719,1.79431
4719.13749,1.79422
4718.10778,1.79407
4717.07808,1.79383
4716.04837,1.79348
4715.01867,1.79303
4713.98896,1.79254
4712.95926,1.79201
4711.92955,1.79148
4710.89985,1.79100
4709.87014,1.79059
4708.84044,1.79022
4707.81073,1.78991
4706.78103,1.78965
4705.75132,1.78940
4704.72162,1.78916
4703.69191,1.78896
4702.66221,1.78877
4701.63251,1.78855
4700.60280,1.78828
4699.57310,1.78806
4698.54339,1.78790
4697.51369,1.78775
4696.48398,1.78760
4695.45428,1.78745
4694.42457,1.78727
4693.39487,1.78708
4692.36516,1.78691
4691.33546,1.78684
4690.30575,1.78694
4689.27605,1.78721
4688.24634,1.78762
4687.21664,1.78811
4686.18693,1.78867
4685.15723,1.78928
4684.12752,1.78999
4683.09782,1.79084
4682.06811,1.79187
4681.03841,1.79303
4680.00870,1.79429
4678.97900,1.79557
4677.94929,1.79682
4676.91959,1.79800
4675.88988,1.79908
4674.86018,1.80002
4673.83047,1.80074
4672.80077,1.80124
4671.77106,1.80160
4670.74136,1.80181
4669.71165,1.80183
4668.68195,1.80169
4667.65224,1.80141
4666.62254,1.80101
4665.59283,1.80044
4664.56313,1.79966
4663.53342,1.79865
4662.50372,1.79746
4661.47401,1.79620
4660.44431,1.79496
4659.41460,1.79385
4658.38490,1.79291
4657.35520,1.79214
4656.32549,1.79151
4655.29579,1.79098
4654.26608,1.79057
4653.23638,1.79026
4652.20667,1.79005
4651.17697,1.78992
4650.14726,1.78984
4649.11756,1.78985
4648.08785,1.79003
4647.05815,1.79035
4646.02844,1.79077
4644.99874,1.79121
4643.96903,1.79167
4642.93933,1.79212
4641.90962,1.79251
4640.87992,1.79282
4639.85021,1.79305
4638.82051,1.79322
4637.79080,1.79335
4636.76110,1.79347
4635.73139,1.79360
4634.70169,1.79374
4633.67198,1.79387
4632.64228,1.79395
4631.61257,1.79391
4630.58287,1.79377
4629.55316,1.79354
4628.52346,1.79321
4627.49375,1.79279
4626.46405,1.79231
4625.43434,1.79182
4624.40464,1.79136
4623.37493,1.79094
4622.34523,1.79056
4621.31552,1.79023
4620.28582,1.78997
4619.25611,1.78982
4618.22641,1.78978
4617.19670,1.78984
4616.16700,1.78998
4615.13729,1.79018
4614.10759,1.79043
4613.07789,1.79072
4612.04818,1.79106
4611.01848,1.79143
4609.98877,1.79180
4608.95907,1.79212
4607.92936,1.79227
4606.89966,1.79222
4605.86995,1.79203
4604.84025,1.79171
4603.81054,1.79129
4602.78084,1.79076
4601.75113,1.79016
4600.72143,1.78951
4599.69172,1.78883
4598.66202,1.78816
4597.63231,1.78753
4596.60261,1.78698
4595.57290,1.78656
4594.54320,1.78629
4593.51349,1.78616
4592.48379,1.78614
4591.45408,1.78624
4590.42438,1.78649
4589.39467,1.78687
4588.36497,1.78737
4587.33526,1.78793
4586.30556,1.78847
4585.27585,1.78896
4584.24615,1.78937
4583.21644,1.78966
4582.18674,1.78988
4581.15703,1.79004
4580.12733,1.79009
4579.09762,1.79001
4578.06792,1.78976
4577.03821,1.78939
4576.00851,1.78893
4574.97880,1.78842
4573.94910,1.78789
4572.91939,1.78737
4571.88969,1.78691
4570.85998,1.78653
4569.83028,1.78623
4568.80058,1.78602
4567.77087,1.78591
4566.74117,1.78592
4565.71146,1.78603
4564.68176,1.78617
4563.65205,1.78628
4562.62235,1.78636
4561.59264,1.78645
4560.56294,1.78659
4559.53323,1.78680
4558.50353,1.78703
4557.47382,1.78721
4556.44412,1.78729
4555.41441,1.78726
4554.38471,1.78715
4553.35500,1.78701
4552.32530,1.78686
4551.29559,1.78675
4550.26589,1.78664
4549.23618,1.78654
4548.20648,1.78645
4547.17677,1.78636
4546.14707,1.78626
4545.11736,1.78616
4544.08766,1.78607
4543.05795,1.78596
4542.02825,1.78582
4540.99854,1.78562
4539.96884,1.78536
4538.93913,1.78509
4537.90943,1.78487
4536.87972,1.78474
4535.85002,1.78468
4534.82031,1.78464
4533.79061,1.78457
4532.76090,1.78446
4531.73120,1.78435
4530.70149,1.78430
4529.67179,1.78434
4528.64208,1.78444
4527.61238,1.78459
4526.58267,1.78476
4525.55297,1.78491
4524.52326,1.78506
4523.49356,1.78521
4522.46386,1.78535
4521.43415,1.78550
4520.40445,1.78567
4519.37474,1.78587
4518.34504,1.78614
4517.31533,1.78651
4516.28563,1.78701
4515.25592,1.78762
4514.22622,1.78835
4513.19651,1.78920
4512.16681,1.79017
4511.13710,1.79118
4510.10740,1.79217
4509.07769,1.79310
4508.04799,1.79400
4507.01828,1.79483
4505.98858,1.79560
4504.95887,1.79625
4503.92917,1.79676
4502.89946,1.79711
4501.86976,1.79731
4500.84005,1.79735
4499.81035,1.79725
4498.78064,1.79704
4497.75094,1.79674
4496.72123,1.79642
4495.69153,1.79613
4494.66182,1.79594
4493.63212,1.79588
4492.60241,1.79595
4491.57271,1.79615
4490.54300,1.79646
4489.51330,1.79689
4488.48359,1.79743
4487.45389,1.79804
4486.42418,1.79864
4485.39448,1.79920
4484.36477,1.79976
4483.33507,1.80029
4482.30536,1.80077
4481.27566,1.80120
4480.24595,1.80163
4479.21625,1.80209
4478.18655,1.80256
4477.15684,1.80306
4476.12714,1.80357
4475.09743,1.80412
4474.06773,1.80472
4473.03802,1.80539
4472.00832,1.80614
4470.97861,1.80698
4469.94891,1.80788
4468.91920,1.80884
4467.88950,1.80986
4466.85979,1.81093
4465.83009,1.81200
4464.80038,1.81304
4463.77068,1.81405
4462.74097,1.81500
4461.71127,1.81588
4460.68156,1.81669
4459.65186,1.81744
4458.62215,1.81810
4457.59245,1.81873
4456.56274,1.81940
4455.53304,1.82014
4454.50333,1.82093
4453.47363,1.82176
4452.44392,1.82258
4451.41422,1.82341
4450.38451,1.82423
4449.35481,1.82504
4448.32510,1.82587
4447.29540,1.82669
4446.26569,1.82753
4445.23599,1.82838
4444.20628,1.82924
4443.17658,1.83013
4442.14687,1.83105
4441.11717,1.83196
4440.08746,1.83290
4439.05776,1.83389
4438.02805,1.83490
4436.99835,1.83596
4435.96864,1.83711
4434.93894,1.83840
4433.90924,1.83984
4432.87953,1.84148
4431.84983,1.84331
4430.82012,1.84532
4429.79042,1.84748
4428.76071,1.84974
4427.73101,1.85208
4426.70130,1.85450
4425.67160,1.85700
4424.64189,1.85955
4423.61219,1.86210
4422.58248,1.86466
4421.55278,1.86721
4420.52307,1.86972
4419.49337,1.87219
4418.46366,1.87461
4417.43396,1.87692
4416.40425,1.87912
4415.37455,1.88118
4414.34484,1.88307
4413.31514,1.88478
4412.28543,1.88637
4411.25573,1.88787
4410.22602,1.88929
4409.19632,1.89062
4408.16661,1.89190
4407.13691,1.89315
4406.10720,1.89438
4405.07750,1.89556
4404.04779,1.89670
4403.01809,1.89778
4401.98838,1.89884
4400.95868,1.89991
4399.92897,1.90098
4398.89927,1.90205
4397.86956,1.90315
4396.83986,1.90428
4395.81015,1.90547
4394.78045,1.90672
4393.75074,1.90807
4392.72104,1.90951
4391.69133,1.91098
4390.66163,1.91242
4389.63193,1.91381
4388.60222,1.91515
4387.57252,1.91645
4386.54281,1.91775
4385.51311,1.91907
4384.48340,1.92044
4383.45370,1.92188
4382.42399,1.92337
4381.39429,1.92488
4380.36458,1.92638
4379.33488,1.92788
4378.30517,1.92940
4377.27547,1.93094
4376.24576,1.93246
4375.21606,1.93394
4374.18635,1.93539
4373.15665,1.93686
4372.12694,1.93839
4371.09724,1.94002
4370.06753,1.94178
4369.03783,1.94366
4368.00812,1.94557
4366.97842,1.94743
4365.94871,1.94921
4364.91901,1.95092
4363.88930,1.95261
4362.85960,1.95432
4361.82989,1.95612
4360.80019,1.95806
4359.77048,1.96012
4358.74078,1.96230
4357.71107,1.96456
4356.68137,1.96692
4355.65166,1.96937
4354.62196,1.97191
4353.59225,1.97444
4352.56255,1.97688
4351.53284,1.97919
4350.50314,1.98141
4349.47343,1.98357
4348.44373,1.98564
4347.41402,1.98758
4346.38432,1.98938
4345.35461,1.99099
4344.32491,1.99232
4343.29521,1.99333
4342.26550,1.99409
4341.23580,1.99465
4340.20609,1.99512
4339.17639,1.99557
4338.14668,1.99608
4337.11698,1.99669
4336.08727,1.99742
4335.05757,1.99826
4334.02786,1.99923
4332.99816,2.00033
4331.96845,2.00150
4330.93875,2.00271
4329.90904,2.00388
4328.87934,2.00491
4327.84963,2.00569
4326.81993,2.00620
4325.79022,2.00640
4324.76052,2.00621
4323.73081,2.00553
4322.70111,2.00431
4321.67140,2.00251
4320.64170,2.00011
4319.61199,1.99721
4318.58229,1.99397
4317.55258,1.99051
4316.52288,1.98692
4315.49317,1.98330
4314.46347,1.97969
4313.43376,1.97618
4312.40406,1.97284
4311.37435,1.96972
4310.34465,1.96687
4309.31494,1.96429
4308.28524,1.96201
4307.25553,1.96004
4306.22583,1.95840
4305.19612,1.95704
4304.16642,1.95588
4303.13671,1.95490
4302.10701,1.95407
4301.07730,1.95339
4300.04760,1.95283
4299.01790,1.95236
4297.98819,1.95192
4296.95849,1.95153
4295.92878,1.95123
4294.89908,1.95111
4293.86937,1.95116
4292.83967,1.95136
4291.80996,1.95167
4290.78026,1.95210
4289.75055,1.95266
4288.72085,1.95341
4287.69114,1.95432
4286.66144,1.95534
4285.63173,1.95643
4284.60203,1.95765
4283.57232,1.95902
4282.54262,1.96051
4281.51291,1.96208
4280.48321,1.96371
4279.45350,1.96537
4278.42380,1.96705
4277.39409,1.96872
4276.36439,1.97037
4275.33468,1.97193
4274.30498,1.97332
4273.27527,1.97448
4272.24557,1.97549
4271.21586,1.97640
4270.18616,1.97727
4269.15645,1.97809
4268.12675,1.97885
4267.09704,1.97961
4266.06734,1.98041
4265.03763,1.98130
4264.00793,1.98229
4262.97822,1.98330
4261.94852,1.98433
4260.91881,1.98543
4259.88911,1.98661
4258.85940,1.98781
4257.82970,1.98894
4256.79999,1.98995
4255.77029,1.99080
4254.74059,1.99144
4253.71088,1.99176
4252.68118,1.99169
4251.65147,1.99117
4250.62177,1.99015
4249.59206,1.98867
4248.56236,1.98683
4247.53265,1.98475
4246.50295,1.98251
4245.47324,1.98011
4244.44354,1.97760
4243.41383,1.97507
4242.38413,1.97261
4241.35442,1.97031
4240.32472,1.96822
4239.29501,1.96637
4238.26531,1.96477
4237.23560,1.96346
4236.20590,1.96248
4235.17619,1.96179
4234.14649,1.96132
4233.11678,1.96106
4232.08708,1.96100
4231.05737,1.96110
4230.02767,1.96130
4228.99796,1.96154
4227.96826,1.96177
4226.93855,1.96193
4225.90885,1.96206
4224.87914,1.96217
4223.84944,1.96228
4222.81973,1.96234
4221.79003,1.96234
4220.76032,1.96230
4219.73062,1.96226
4218.70091,1.96223
4217.67121,1.96219
4216.64150,1.96217
4215.61180,1.96219
4214.58209,1.96225
4213.55239,1.96237
4212.52268,1.96256
4211.49298,1.96281
4210.46328,1.96307
4209.43357,1.96334
4208.40387,1.96364
4207.37416,1.96401
4206.34446,1.96447
4205.31475,1.96502
4204.28505,1.96565
4203.25534,1.96627
4202.22564,1.96687
4201.19593,1.96748
4200.16623,1.96810
4199.13652,1.96871
4198.10682,1.96928
4197.07711,1.96980
4196.04741,1.97027
4195.01770,1.97067
4193.98800,1.97098
4192.95829,1.97120
4191.92859,1.97138
4190.89888,1.97151
4189.86918,1.97152
4188.83947,1.97139
4187.80977,1.97112
4186.78006,1.97072
4185.75036,1.97020
4184.72065,1.96962
4183.69095,1.96907
4182.66124,1.96860
4181.63154,1.96823
4180.60183,1.96792
4179.57213,1.96764
4178.54242,1.96736
4177.51272,1.96711
4176.48301,1.96694
4175.45331,1.96684
4174.42360,1.96678
4173.39390,1.96677
4172.36419,1.96681
4171.33449,1.96692
4170.30478,1.96711
4169.27508,1.96735
4168.24537,1.96764
4167.21567,1.96794
4166.18596,1.96819
4165.15626,1.96835
4164.12656,1.96843
4163.09685,1.96848
4162.06715,1.96854
4161.03744,1.96864
4160.00774,1.96877
4158.97803,1.96893
4157.94833,1.96905
4156.91862,1.96911
4155.88892,1.96911
4154.85921,1.96903
4153.82951,1.96888
4152.79980,1.96864
4151.77010,1.96832
4150.74039,1.96793
4149.71069,1.96752
4148.68098,1.96706
4147.65128,1.96659
4146.62157,1.96614
4145.59187,1.96575
4144.56216,1.96543
4143.53246,1.96517
4142.50275,1.96499
4141.47305,1.96486
4140.44334,1.96477
4139.41364,1.96478
4138.38393,1.96496
4137.35423,1.96529
4136.32452,1.96573
4135.29482,1.96622
4134.26511,1.96672
4133.23541,1.96718
4132.20570,1.96763
4131.17600,1.96801
4130.14629,1.96829
4129.11659,1.96842
4128.08688,1.96845
4127.05718,1.96839
4126.02747,1.96827
4124.99777,1.96807
4123.96806,1.96780
4122.93836,1.96749
4121.90865,1.96722
4120.87895,1.96697
4119.84925,1.96676
4118.81954,1.96657
4117.78984,1.96637
4116.76013,1.96618
4115.73043,1.96604
4114.70072,1.96602
4113.67102,1.96613
4112.64131,1.96631
4111.61161,1.96652
4110.58190,1.96674
4109.55220,1.96695
4108.52249,1.96715
4107.49279,1.96736
4106.46308,1.96757
4105.43338,1.96778
4104.40367,1.96800
4103.37397,1.96822
4102.34426,1.96841
4101.31456,1.96852
4100.28485,1.96856
4099.25515,1.96851
4098.22544,1.96837
4097.19574,1.96815
4096.16603,1.96785
4095.13633,1.96749
4094.10662,1.96705
4093.07692,1.96652
4092.04721,1.96597
4091.01751,1.96545
4089.98780,1.96498
4088.95810,1.96453
4087.92839,1.96407
4086.89869,1.96362
4085.86898,1.96322
4084.83928,1.96293
4083.80957,1.96280
4082.77987,1.96284
4081.75016,1.96301
4080.72046,1.96327
4079.69075,1.96360
4078.66105,1.96398
4077.63134,1.96441
4076.60164,1.96488
4075.57194,1.96538
4074.54223,1.96590
4073.51253,1.96641
4072.48282,1.96693
4071.45312,1.96745
4070.42341,1.96795
4069.39371,1.96837
4068.36400,1.96871
4067.33430,1.96897
4066.30459,1.96911
4065.27489,1.96913
4064.24518,1.96901
4063.21548,1.96878
4062.18577,1.96850
4061.15607,1.96821
4060.12636,1.96796
4059.09666,1.96774
4058.06695,1.96756
4057.03725,1.96739
4056.00754,1.96726
4054.97784,1.96721
4053.94813,1.96726
4052.91843,1.96742
4051.88872,1.96770
4050.85902,1.96813
4049.82931,1.96870
4048.79961,1.96938
4047.76990,1.97013
4046.74020,1.97089
4045.71049,1.97161
4044.68079,1.97224
4043.65108,1.97274
4042.62138,1.97311
4041.59167,1.97335
4040.56197,1.97352
4039.53226,1.97364
4038.50256,1.97373
4037.47285,1.97380
4036.44315,1.97387
4035.41344,1.97394
4034.38374,1.97400
4033.35403,1.97401
4032.32433,1.97395
4031.29463,1.97384
4030.26492,1.97373
4029.23522,1.97361
4028.20551,1.97349
4027.17581,1.97341
4026.14610,1.97336
4025.11640,1.97328
4024.08669,1.97310
4023.05699,1.97279
4022.02728,1.97234
4020.99758,1.97178
4019.96787,1.97117
4018.93817,1.97055
4017.90846,1.96997
4016.87876,1.96947
4015.84905,1.96906
4014.81935,1.96873
4013.78964,1.96848
4012.75994,1.96833
4011.73023,1.96830
4010.70053,1.96837
4009.67082,1.96851
4008.64112,1.96871
4007.61141,1.96896
4006.58171,1.96929
4005.55200,1.96967
4004.52230,1.97005
4003.49259,1.97041
4002.46289,1.97073
4001.43318,1.97097
4000.40348,1.97108
3999.37377,1.97105
3998.34407,1.97089
3997.31436,1.97063
3996.28466,1.97035
3995.25495,1.97009
3994.22525,1.96984
3993.19554,1.96958
3992.16584,1.96928
3991.13613,1.96893
3990.10643,1.96856
3989.07672,1.96820
3988.04702,1.96789
3987.01731,1.96763
3985.98761,1.96742
3984.95791,1.96727
3983.92820,1.96718
3982.89850,1.96715
3981.86879,1.96714
3980.83909,1.96710
3979.80938,1.96703
3978.77968,1.96694
3977.74997,1.96686
3976.72027,1.96676
3975.69056,1.96664
3974.66086,1.96651
3973.63115,1.96643
3972.60145,1.96645
3971.57174,1.96657
3970.54204,1.96676
3969.51233,1.96694
3968.48263,1.96709
3967.45292,1.96720
3966.42322,1.96728
3965.39351,1.96737
3964.36381,1.96745
3963.33410,1.96751
3962.30440,1.96757
3961.27469,1.96766
3960.24499,1.96779
3959.21528,1.96793
3958.18558,1.96805
3957.15587,1.96809
3956.12617,1.96804
3955.09646,1.96795
3954.06676,1.96788
3953.03705,1.96784
3952.00735,1.96781
3950.97764,1.96783
3949.94794,1.96793
3948.91823,1.96808
3947.88853,1.96823
3946.85882,1.96836
3945.82912,1.96847
3944.79941,1.96857
3943.76971,1.96863
3942.74000,1.96866
3941.71030,1.96864
3940.68060,1.96852
3939.65089,1.96830
3938.62119,1.96805
3937.59148,1.96780
3936.56178,1.96757
3935.53207,1.96729
3934.50237,1.96695
3933.47266,1.96653
3932.44296,1.96602
3931.41325,1.96550
3930.38355,1.96501
3929.35384,1.96456
3928.32414,1.96413
3927.29443,1.96371
3926.26473,1.96331
3925.23502,1.96290
3924.20532,1.96247
3923.17561,1.96206
3922.14591,1.96172
3921.11620,1.96148
3920.08650,1.96129
3919.05679,1.96110
3918.02709,1.96088
3916.99738,1.96063
3915.96768,1.96034
3914.93797,1.96004
3913.90827,1.95979
3912.87856,1.95956
3911.84886,1.95933
3910.81915,1.95905
3909.78945,1.95869
3908.75974,1.95823
3907.73004,1.95770
3906.70033,1.95713
3905.67063,1.95651
3904.64092,1.95579
3903.61122,1.95495
3902.58151,1.95403
3901.55181,1.95313
3900.52210,1.95232
3899.49240,1.95165
3898.46269,1.95111
3897.43299,1.95068
3896.40329,1.95038
3895.37358,1.95019
3894.34388,1.95006
3893.31417,1.94998
3892.28447,1.95000
3891.25476,1.95012
3890.22506,1.95036
3889.19535,1.95071
3888.16565,1.95112
3887.13594,1.95156
3886.10624,1.95196
3885.07653,1.95224
3884.04683,1.95246
3883.01712,1.95267
3881.98742,1.95283
3880.95771,1.95285
3879.92801,1.95270
3878.89830,1.95248
3877.86860,1.95223
3876.83889,1.95185
3875.80919,1.95133
3874.77948,1.95070
3873.74978,1.94998
3872.72007,1.94924
3871.69037,1.94859
3870.66066,1.94802
3869.63096,1.94756
3868.60125,1.94729
3867.57155,1.94728
3866.54184,1.94752
3865.51214,1.94798
3864.48243,1.94862
3863.45273,1.94943
3862.42302,1.95038
3861.39332,1.95141
3860.36361,1.95251
3859.33391,1.95372
3858.30420,1.95499
3857.27450,1.95621
3856.24479,1.95729
3855.21509,1.95821
3854.18538,1.95887
3853.15568,1.95904
3852.12598,1.95875
3851.09627,1.95823
3850.06657,1.95761
3849.03686,1.95692
3848.00716,1.95624
3846.97745,1.95558
3845.94775,1.95493
3844.91804,1.95424
3843.88834,1.95353
3842.85863,1.95282
3841.82893,1.95214
3840.79922,1.95148
3839.76952,1.95082
3838.73981,1.95014
3837.71011,1.94944
3836.68040,1.94878
3835.65070,1.94824
3834.62099,1.94784
3833.59129,1.94758
3832.56158,1.94745
3831.53188,1.94738
3830.50217,1.94726
3829.47247,1.94708
3828.44276,1.94689
3827.41306,1.94684
3826.38335,1.94695
3825.35365,1.94712
3824.32394,1.94733
3823.29424,1.94762
3822.26453,1.94797
3821.23483,1.94828
3820.20512,1.94849
3819.17542,1.94874
3818.14571,1.94907
3817.11601,1.94947
3816.08630,1.94985
3815.05660,1.95014
3814.02689,1.95041
3812.99719,1.95071
3811.96748,1.95110
3810.93778,1.95157
3809.90807,1.95206
3808.87837,1.95253
3807.84866,1.95289
3806.81896,1.95305
3805.78926,1.95297
3804.75955,1.95274
3803.72985,1.95237
3802.70014,1.95179
3801.67044,1.95096
3800.64073,1.94995
3799.61103,1.94895
3798.58132,1.94804
3797.55162,1.94720
3796.52191,1.94646
3795.49221,1.94589
3794.46250,1.94554
3793.43280,1.94533
3792.40309,1.94525
3791.37339,1.94532
3790.34368,1.94561
3789.31398,1.94614
3788.28427,1.94690
3787.25457,1.94786
3786.22486,1.94896
3785.19516,1.95014
3784.16545,1.95132
3783.13575,1.95245
3782.10604,1.95347
3781.07634,1.95440
3780.04663,1.95526
3779.01693,1.95602
3777.98722,1.95668
3776.95752,1.95730
3775.92781,1.95792
3774.89811,1.95860
3773.86840,1.95925
3772.83870,1.95980
3771.80899,1.96021
3770.77929,1.96050
3769.74958,1.96062
3768.71988,1.96056
3767.69017,1.96047
3766.66047,1.96051
3765.63076,1.96075
3764.60106,1.96117
3763.57135,1.96178
3762.54165,1.96257
3761.51195,1.96351
3760.48224,1.96453
3759.45254,1.96550
3758.42283,1.96640
3757.39313,1.96726
3756.36342,1.96817
3755.33372,1.96916
3754.30401,1.97025
3753.27431,1.97143
3752.24460,1.97265
3751.21490,1.97381
3750.18519,1.97485
3749.15549,1.97566
3748.12578,1.97624
3747.09608,1.97666
3746.06637,1.97696
3745.03667,1.97712
3744.00696,1.97719
3742.97726,1.97741
3741.94755,1.97786
3740.91785,1.97847
3739.88814,1.97918
3738.85844,1.97997
3737.82873,1.98081
3736.79903,1.98164
3735.76932,1.98234
3734.73962,1.98287
3733.70991,1.98333
3732.68021,1.98385
3731.65050,1.98449
3730.62080,1.98530
3729.59109,1.98625
3728.56139,1.98729
3727.53168,1.98836
3726.50198,1.98941
3725.47227,1.99038
3724.44257,1.99127
3723.41286,1.99214
3722.38316,1.99299
3721.35345,1.99384
3720.32375,1.99477
3719.29404,1.99584
3718.26434,1.99709
3717.23464,1.99849
3716.20493,1.99998
3715.17523,2.00156
3714.14552,2.00323
3713.11582,2.00498
3712.08611,2.00677
3711.05641,2.00856
3710.02670,2.01039
3708.99700,2.01236
3707.96729,2.01456
3706.93759,2.01704
3705.90788,2.01979
3704.87818,2.02275
3703.84847,2.02581
3702.81877,2.02890
3701.78906,2.03197
3700.75936,2.03502
3699.72965,2.03803
3698.69995,2.04100
3697.67024,2.04402
3696.64054,2.04719
3695.61083,2.05055
3694.58113,2.05403
3693.55142,2.05758
3692.52172,2.06117
3691.49201,2.06483
3690.46231,2.06857
3689.43260,2.07247
3688.40290,2.07651
3687.37319,2.08063
3686.34349,2.08481
3685.31378,2.08910
3684.28408,2.09354
3683.25437,2.09816
3682.22467,2.10292
3681.19496,2.10773
3680.16526,2.11246
3679.13555,2.11702
3678.10585,2.12144
3677.07614,2.12581
3676.04644,2.13014
3675.01673,2.13433
3673.98703,2.13847
3672.95733,2.14267
3671.92762,2.14686
3670.89792,2.15095
3669.86821,2.15491
3668.83851,2.15882
3667.80880,2.16275
3666.77910,2.16680
3665.74939,2.17105
3664.71969,2.17549
3663.68998,2.18009
3662.66028,2.18480
3661.63057,2.18966
3660.60087,2.19465
3659.57116,2.19977
3658.54146,2.20497
3657.51175,2.21017
3656.48205,2.21530
3655.45234,2.22034
3654.42264,2.22532
3653.39293,2.23020
3652.36323,2.23488
3651.33352,2.23929
3650.30382,2.24336
3649.27411,2.24714
3648.24441,2.25061
3647.21470,2.25371
3646.18500,2.25656
3645.15529,2.25926
3644.12559,2.26189
3643.09588,2.26450
3642.06618,2.26711
3641.03647,2.26970
3640.00677,2.27225
3638.97706,2.27474
3637.94736,2.27720
3636.91765,2.27969
3635.88795,2.28222
3634.85824,2.28483
3633.82854,2.28749
3632.79883,2.29013
3631.76913,2.29275
3630.73942,2.29537
3629.70972,2.29793
3628.68001,2.30027
3627.65031,2.30247
3626.62061,2.30466
3625.59090,2.30685
3624.56120,2.30901
3623.53149,2.31108
3622.50179,2.31306
3621.47208,2.31499
3620.44238,2.31682
3619.41267,2.31854
3618.38297,2.32017
3617.35326,2.32165
3616.32356,2.32292
3615.29385,2.32403
3614.26415,2.32514
3613.23444,2.32635
3612.20474,2.32766
3611.17503,2.32893
3610.14533,2.33013
3609.11562,2.33126
3608.08592,2.33238
3607.05621,2.33358
3606.02651,2.33488
3604.99680,2.33622
3603.96710,2.33756
3602.93739,2.33903
3601.90769,2.34064
3600.87798,2.34228
3599.84828,2.34381
3598.81857,2.34521
3597.78887,2.34649
3596.75916,2.34764
3595.72946,2.34860
3594.69975,2.34938
3593.67005,2.34993
3592.64034,2.35020
3591.61064,2.35028
3590.58093,2.35036
3589.55123,2.35051
3588.52152,2.35064
3587.49182,2.35056
3586.46211,2.35024
3585.43241,2.34985
3584.40270,2.34949
3583.37300,2.34918
3582.34330,2.34888
3581.31359,2.34863
3580.28389,2.34840
3579.25418,2.34822
3578.22448,2.34819
3577.19477,2.34830
3576.16507,2.34853
3575.13536,2.34884
3574.10566,2.34926
3573.07595,2.34973
3572.04625,2.35015
3571.01654,2.35048
3569.98684,2.35070
3568.95713,2.35080
3567.92743,2.35079
3566.89772,2.35081
3565.86802,2.35090
3564.83831,2.35105
3563.80861,2.35118
3562.77890,2.35123
3561.74920,2.35125
3560.71949,2.35130
3559.68979,2.35132
3558.66008,2.35131
3557.63038,2.35135
3556.60067,2.35152
3555.57097,2.35179
3554.54126,2.35216
3553.51156,2.35266
3552.48185,2.35329
3551.45215,2.35401
3550.42244,2.35476
3549.39274,2.35544
3548.36303,2.35597
3547.33333,2.35632
3546.30362,2.35656
3545.27392,2.35669
3544.24421,2.35674
3543.21451,2.35675
3542.18480,2.35681
3541.15510,2.35700
3540.12539,2.35733
3539.09569,2.35775
3538.06599,2.35818
3537.03628,2.35861
3536.00658,2.35903
3534.97687,2.35940
3533.94717,2.35972
3532.91746,2.36003
3531.88776,2.36028
3530.85805,2.36042
3529.82835,2.36046
3528.79864,2.36040
3527.76894,2.36015
3526.73923,2.35967
3525.70953,2.35891
3524.67982,2.35788
3523.65012,2.35663
3522.62041,2.35527
3521.59071,2.35385
3520.56100,2.35240
3519.53130,2.35093
3518.50159,2.34955
3517.47189,2.34837
3516.44218,2.34745
3515.41248,2.34674
3514.38277,2.34615
3513.35307,2.34562
3512.32336,2.34515
3511.29366,2.34472
3510.26395,2.34436
3509.23425,2.34410
3508.20454,2.34395
3507.17484,2.34391
3506.14513,2.34396
3505.11543,2.34406
3504.08572,2.34416
3503.05602,2.34429
3502.02631,2.34453
3500.99661,2.34486
3499.96690,2.34530
3498.93720,2.34587
3497.90749,2.34654
3496.87779,2.34730
3495.84808,2.34808
3494.81838,2.34889
3493.78868,2.34975
3492.75897,2.35064
3491.72927,2.35147
3490.69956,2.35215
3489.66986,2.35262
3488.64015,2.35289
3487.61045,2.35299
3486.58074,2.35298
3485.55104,2.35290
3484.52133,2.35277
3483.49163,2.35253
3482.46192,2.35216
3481.43222,2.35168
3480.40251,2.35115
3479.37281,2.35062
3478.34310,2.35015
3477.31340,2.34975
3476.28369,2.34936
3475.25399,2.34897
3474.22428,2.34855
3473.19458,2.34809
3472.16487,2.34762
3471.13517,2.34713
3470.10546,2.34665
3469.07576,2.34617
3468.04605,2.34568
3467.01635,2.34518
3465.98664,2.34463
3464.95694,2.34407
3463.92723,2.34355
3462.89753,2.34309
3461.86782,2.34269
3460.83812,2.34231
3459.80841,2.34187
3458.77871,2.34132
3457.74900,2.34074
3456.71930,2.34025
3455.68959,2.33986
3454.65989,2.33958
3453.63018,2.33939
3452.60048,2.33924
3451.57077,2.33909
3450.54107,2.33891
3449.51136,2.33872
3448.48166,2.33857
3447.45196,2.33849
3446.42225,2.33850
3445.39255,2.33854
3444.36284,2.33857
3443.33314,2.33856
3442.30343,2.33852
3441.27373,2.33848
3440.24402,2.33844
3439.21432,2.33836
3438.18461,2.33819
3437.15491,2.33789
3436.12520,2.33746
3435.09550,2.33690
3434.06579,2.33630
3433.03609,2.33574
3432.00638,2.33527
3430.97668,2.33484
3429.94697,2.33441
3428.91727,2.33397
3427.88756,2.33351
3426.85786,2.33299
3425.82815,2.33242
3424.79845,2.33183
3423.76874,2.33122
3422.73904,2.33060
3421.70933,2.32994
3420.67963,2.32921
3419.64992,2.32835
3418.62022,2.32740
3417.59051,2.32641
3416.56081,2.32544
3415.53110,2.32449
3414.50140,2.32358
3413.47169,2.32273
3412.44199,2.32199
3411.41228,2.32143
3410.38258,2.32107
3409.35287,2.32092
3408.32317,2.32094
3407.29346,2.32112
3406.26376,2.32141
3405.23405,2.32179
3404.20435,2.32224
3403.17465,2.32275
3402.14494,2.32330
3401.11524,2.32384
3400.08553,2.32436
3399.05583,2.32483
3398.02612,2.32520
3396.99642,2.32542
3395.96671,2.32540
3394.93701,2.32512
3393.90730,2.32459
3392.87760,2.32386
3391.84789,2.32300
3390.81819,2.32205
3389.78848,2.32104
3388.75878,2.32002
3387.72907,2.31906
3386.69937,2.31816
3385.66966,2.31730
3384.63996,2.31646
3383.61025,2.31568
3382.58055,2.31498
3381.55084,2.31435
3380.52114,2.31378
3379.49143,2.31331
3378.46173,2.31296
3377.43202,2.31273
3376.40232,2.31263
3375.37261,2.31262
3374.34291,2.31263
3373.31320,2.31260
3372.28350,2.31252
3371.25379,2.31239
3370.22409,2.31222
3369.19438,2.31199
3368.16468,2.31174
3367.13497,2.31155
3366.10527,2.31146
3365.07556,2.31150
3364.04586,2.31168
3363.01615,2.31196
3361.98645,2.31236
3360.95674,2.31290
3359.92704,2.31357
3358.89734,2.31436
3357.86763,2.31518
3356.83793,2.31597
3355.80822,2.31671
3354.77852,2.31740
3353.74881,2.31805
3352.71911,2.31864
3351.68940,2.31912
3350.65970,2.31941
3349.62999,2.31947
3348.60029,2.31935
3347.57058,2.31908
3346.54088,2.31868
3345.51117,2.31817
3344.48147,2.31753
3343.45176,2.31683
3342.42206,2.31613
3341.39235,2.31550
3340.36265,2.31493
3339.33294,2.31442
3338.30324,2.31403
3337.27353,2.31383
3336.24383,2.31387
3335.21412,2.31408
3334.18442,2.31440
3333.15471,2.31475
3332.12501,2.31509
3331.09530,2.31545
3330.06560,2.31581
3329.03589,2.31614
3328.00619,2.31637
3326.97648,2.31643
3325.94678,2.31633
3324.91707,2.31614
3323.88737,2.31588
3322.85766,2.31556
3321.82796,2.31517
3320.79825,2.31471
3319.76855,2.31417
3318.73884,2.31359
3317.70914,2.31298
3316.67943,2.31234
3315.64973,2.31166
3314.62003,2.31101
3313.59032,2.31045
3312.56062,2.31002
3311.53091,2.30970
3310.50121,2.30943
3309.47150,2.30917
3308.44180,2.30888
3307.41209,2.30861
3306.38239,2.30833
3305.35268,2.30803
3304.32298,2.30769
3303.29327,2.30731
3302.26357,2.30695
3301.23386,2.30667
3300.20416,2.30648
3299.17445,2.30634
3298.14475,2.30623
3297.11504,2.30616
3296.08534,2.30613
3295.05563,2.30611
3294.02593,2.30608
3292.99622,2.30600
3291.96652,2.30588
3290.93681,2.30577
3289.90711,2.30568
3288.87740,2.30560
3287.84770,2.30549
3286.81799,2.30534
3285.78829,2.30510
3284.75858,2.30477
3283.72888,2.30435
3282.69917,2.30390
3281.66947,2.30341
3280.63976,2.30292
3279.61006,2.30248
3278.58035,2.30211
3277.55065,2.30186
3276.52094,2.30174
3275.49124,2.30177
3274.46153,2.30194
3273.43183,2.30221
3272.40212,2.30257
3271.37242,2.30302
3270.34271,2.30353
3269.31301,2.30408
3268.28331,2.30463
3267.25360,2.30518
3266.22390,2.30570
3265.19419,2.30614
3264.16449,2.30648
3263.13478,2.30671
3262.10508,2.30680
3261.07537,2.30676
3260.04567,2.30655
3259.01596,2.30619
3257.98626,2.30570
3256.95655,2.30513
3255.92685,2.30453
3254.89714,2.30394
3253.86744,2.30339
3252.83773,2.30295
3251.80803,2.30266
3250.77832,2.30248
3249.74862,2.30232
3248.71891,2.30217
3247.68921,2.30209
3246.65950,2.30211
3245.62980,2.30222
3244.60009,2.30242
3243.57039,2.30265
3242.54068,2.30287
3241.51098,2.30307
3240.48127,2.30323
3239.45157,2.30334
3238.42186,2.30336
3237.39216,2.30330
3236.36245,2.30316
3235.33275,2.30289
3234.30304,2.30253
3233.27334,2.30213
3232.24363,2.30172
3231.21393,2.30132
3230.18422,2.30092
3229.15452,2.30055
3228.12481,2.30024
3227.09511,2.29996
3226.06540,2.29969
3225.03570,2.29942
3224.00600,2.29922
3222.97629,2.29914
3221.94659,2.29919
3220.91688,2.29937
3219.88718,2.29967
3218.85747,2.30001
3217.82777,2.30037
3216.79806,2.30078
3215.76836,2.30123
3214.73865,2.30164
3213.70895,2.30196
3212.67924,2.30219
3211.64954,2.30234
3210.61983,2.30237
3209.59013,2.30230
3208.56042,2.30213
3207.53072,2.30182
3206.50101,2.30134
3205.47131,2.30070
3204.44160,2.29994
3203.41190,2.29906
3202.38219,2.29807
3201.35249,2.29701
3200.32278,2.29591
3199.29308,2.29482
3198.26337,2.29378
3197.23367,2.29285
3196.20396,2.29207
3195.17426,2.29143
3194.14455,2.29098
3193.11485,2.29073
3192.08514,2.29065
3191.05544,2.29070
3190.02573,2.29080
3188.99603,2.29098
3187.96632,2.29129
3186.93662,2.29172
3185.90691,2.29221
3184.87721,2.29270
3183.84750,2.29315
3182.81780,2.29350
3181.78809,2.29375
3180.75839,2.29390
3179.72869,2.29394
3178.69898,2.29386
3177.66928,2.29370
3176.63957,2.29349
3175.60987,2.29326
3174.58016,2.29304
3173.55046,2.29283
3172.52075,2.29263
3171.49105,2.29244
3170.46134,2.29229
3169.43164,2.29219
3168.40193,2.29209
3167.37223,2.29199
3166.34252,2.29185
3165.31282,2.29171
3164.28311,2.29158
3163.25341,2.29148
3162.22370,2.29133
3161.19400,2.29110
3160.16429,2.29080
3159.13459,2.29046
3158.10488,2.29008
3157.07518,2.28969
3156.04547,2.28928
3155.01577,2.28886
3153.98606,2.28844
3152.95636,2.28809
3151.92665,2.28784
3150.89695,2.28769
3149.86724,2.28761
3148.83754,2.28759
3147.80783,2.28761
3146.77813,2.28770
3145.74842,2.28789
3144.71872,2.28818
3143.68901,2.28856
3142.65931,2.28899
3141.62960,2.28945
3140.59990,2.28996
3139.57019,2.29049
3138.54049,2.29098
3137.51078,2.29140
3136.48108,2.29178
3135.45138,2.29214
3134.42167,2.29245
3133.39197,2.29268
3132.36226,2.29281
3131.33256,2.29280
3130.30285,2.29267
3129.27315,2.29249
3128.24344,2.29229
3127.21374,2.29211
3126.18403,2.29194
3125.15433,2.29177
3124.12462,2.29159
3123.09492,2.29143
3122.06521,2.29129
3121.03551,2.29123
3120.00580,2.29126
3118.97610,2.29132
3117.94639,2.29138
3116.91669,2.29141
3115.88698,2.29144
3114.85728,2.29139
3113.82757,2.29126
3112.79787,2.29106
3111.76816,2.29082
3110.73846,2.29052
3109.70875,2.29014
3108.67905,2.28969
3107.64934,2.28916
3106.61964,2.28859
3105.58993,2.28803
3104.56023,2.28753
3103.53052,2.28709
3102.50082,2.28671
3101.47111,2.28638
3100.44141,2.28610
3099.41170,2.28588
3098.38200,2.28573
3097.35229,2.28567
3096.32259,2.28570
3095.29288,2.28581
3094.26318,2.28591
3093.23347,2.28603
3092.20377,2.28619
3091.17406,2.28638
3090.14436,2.28658
3089.11466,2.28677
3088.08495,2.28700
3087.05525,2.28726
3086.02554,2.28754
3084.99584,2.28783
3083.96613,2.28811
3082.93643,2.28839
3081.90672,2.28865
3080.87702,2.28887
3079.84731,2.28903
3078.81761,2.28910
3077.78790,2.28909
3076.75820,2.28900
3075.72849,2.28882
3074.69879,2.28856
3073.66908,2.28821
3072.63938,2.28779
3071.60967,2.28732
3070.57997,2.28680
3069.55026,2.28627
3068.52056,2.28577
3067.49085,2.28535
3066.46115,2.28501
3065.43144,2.28474
3064.40174,2.28458
3063.37203,2.28455
3062.34233,2.28463
3061.31262,2.28479
3060.28292,2.28500
3059.25321,2.28524
3058.22351,2.28550
3057.19380,2.28576
3056.16410,2.28602
3055.13439,2.28625
3054.10469,2.28644
3053.07498,2.28659
3052.04528,2.28671
3051.01557,2.28680
3049.98587,2.28684
3048.95616,2.28686
3047.92646,2.28688
3046.89675,2.28690
3045.86705,2.28694
3044.83735,2.28702
3043.80764,2.28715
3042.77794,2.28735
3041.74823,2.28758
3040.71853,2.28780
3039.68882,2.28799
3038.65912,2.28814
3037.62941,2.28824
3036.59971,2.28827
3035.57000,2.28821
3034.54030,2.28806
3033.51059,2.28784
3032.48089,2.28757
3031.45118,2.28723
3030.42148,2.28686
3029.39177,2.28648
3028.36207,2.28613
3027.33236,2.28584
3026.30266,2.28558
3025.27295,2.28536
3024.24325,2.28523
3023.21354,2.28519
3022.18384,2.28521
3021.15413,2.28529
3020.12443,2.28545
3019.09472,2.28570
3018.06502,2.28603
3017.03531,2.28641
3016.00561,2.28685
3014.97590,2.28736
3013.94620,2.28797
3012.91649,2.28869
3011.88679,2.28943
3010.85708,2.29016
3009.82738,2.29086
3008.79767,2.29156
3007.76797,2.29227
3006.73826,2.29299
3005.70856,2.29370
3004.67885,2.29441
3003.64915,2.29508
3002.61944,2.29569
3001.58974,2.29625
3000.56004,2.29680
2999.53033,2.29734
2998.50063,2.29785
2997.47092,2.29830
2996.44122,2.29877
2995.41151,2.29931
2994.38181,2.29996
2993.35210,2.30075
2992.32240,2.30170
2991.29269,2.30286
2990.26299,2.30424
2989.23328,2.30581
2988.20358,2.30750
2987.17387,2.30926
2986.14417,2.31109
2985.11446,2.31301
2984.08476,2.31504
2983.05505,2.31712
2982.02535,2.31921
2980.99564,2.32127
2979.96594,2.32329
2978.93623,2.32527
2977.90653,2.32723
2976.87682,2.32918
2975.84712,2.33112
2974.81741,2.33298
2973.78771,2.33471
2972.75800,2.33634
2971.72830,2.33791
2970.69859,2.33941
2969.66889,2.34080
2968.63918,2.34207
2967.60948,2.34319
2966.57977,2.34415
2965.55007,2.34491
2964.52036,2.34545
2963.49066,2.34578
2962.46095,2.34594
2961.43125,2.34596
2960.40154,2.34588
2959.37184,2.34570
2958.34213,2.34547
2957.31243,2.34525
2956.28273,2.34511
2955.25302,2.34514
2954.22332,2.34538
2953.19361,2.34588
2952.16391,2.34661
2951.13420,2.34754
2950.10450,2.34864
2949.07479,2.34993
2948.04509,2.35141
2947.01538,2.35308
2945.98568,2.35482
2944.95597,2.35656
2943.92627,2.35827
2942.89656,2.35993
2941.86686,2.36152
2940.83715,2.36300
2939.80745,2.36435
2938.77774,2.36555
2937.74804,2.36654
2936.71833,2.36726
2935.68863,2.36756
2934.65892,2.36734
2933.62922,2.36646
2932.59951,2.36475
2931.56981,2.36203
2930.54010,2.35813
2929.51040,2.35289
2928.48069,2.34620
2927.45099,2.33799
2926.42128,2.32826
2925.39158,2.31711
2924.36187,2.30465
2923.33217,2.29106
2922.30246,2.27653
2921.27276,2.26132
2920.24305,2.24577
2919.21335,2.23030
2918.18364,2.21529
2917.15394,2.20116
2916.12423,2.18831
2915.09453,2.17708
2914.06482,2.16769
2913.03512,2.16031
2912.00541,2.15494
2910.97571,2.15154
2909.94601,2.14996
2908.91630,2.15001
2907.88660,2.15142
2906.85689,2.15393
2905.82719,2.15729
2904.79748,2.16127
2903.76778,2.16562
2902.73807,2.17011
2901.70837,2.17454
2900.67866,2.17872
2899.64896,2.18255
2898.61925,2.18593
2897.58955,2.18883
2896.55984,2.19126
2895.53014,2.19327
2894.50043,2.19493
2893.47073,2.19635
2892.44102,2.19762
2891.41132,2.19884
2890.38161,2.20007
2889.35191,2.20133
2888.32220,2.20263
2887.29250,2.20398
2886.26279,2.20538
2885.23309,2.20684
2884.20338,2.20832
2883.17368,2.20983
2882.14397,2.21140
2881.11427,2.21306
2880.08456,2.21478
2879.05486,2.21650
2878.02515,2.21818
2876.99545,2.21982
2875.96574,2.22143
2874.93604,2.22304
2873.90633,2.22470
2872.87663,2.22649
2871.84692,2.22850
2870.81722,2.23078
2869.78751,2.23334
2868.75781,2.23614
2867.72810,2.23911
2866.69840,2.24214
2865.66870,2.24507
2864.63899,2.24771
2863.60929,2.24987
2862.57958,2.25142
2861.54988,2.25219
2860.52017,2.25202
2859.49047,2.25074
2858.46076,2.24825
2857.43106,2.24451
2856.40135,2.23945
2855.37165,2.23309
2854.34194,2.22547
2853.31224,2.21674
2852.28253,2.20712
2851.25283,2.19690
2850.22312,2.18651
2849.19342,2.17638
2848.16371,2.16693
2847.13401,2.15851
2846.10430,2.15134
2845.07460,2.14557
2844.04489,2.14124
2843.01519,2.13834
2841.98548,2.13680
2840.95578,2.13649
2839.92607,2.13726
2838.89637,2.13900
2837.86666,2.14152
2836.83696,2.14459
2835.80725,2.14797
2834.77755,2.15146
2833.74784,2.15490
2832.71814,2.15816
2831.68843,2.16111
2830.65873,2.16366
2829.62902,2.16573
2828.59932,2.16729
2827.56961,2.16841
2826.53991,2.16920
2825.51020,2.16981
2824.48050,2.17032
2823.45079,2.17080
2822.42109,2.17125
2821.39139,2.17168
2820.36168,2.17206
2819.33198,2.17238
2818.30227,2.17262
2817.27257,2.17280
2816.24286,2.17293
2815.21316,2.17302
2814.18345,2.17306
2813.15375,2.17304
2812.12404,2.17295
2811.09434,2.17285
2810.06463,2.17276
2809.03493,2.17267
2808.00522,2.17260
2806.97552,2.17254
2805.94581,2.17246
2804.91611,2.17235
2803.88640,2.17223
2802.85670,2.17213
2801.82699,2.17207
2800.79729,2.17208
2799.76758,2.17214
2798.73788,2.17221
2797.70817,2.17225
2796.67847,2.17226
2795.64876,2.17224
2794.61906,2.17219
2793.58935,2.17210
2792.55965,2.17203
2791.52994,2.17198
2790.50024,2.17191
2789.47053,2.17181
2788.44083,2.17170
2787.41112,2.17160
2786.38142,2.17152
2785.35171,2.17139
2784.32201,2.17121
2783.29230,2.17099
2782.26260,2.17076
2781.23289,2.17053
2780.20319,2.17031
2779.17348,2.17012
2778.14378,2.16996
2777.11408,2.16983
2776.08437,2.16972
2775.05467,2.16960
2774.02496,2.16944
2772.99526,2.16927
2771.96555,2.16912
2770.93585,2.16899
2769.90614,2.16886
2768.87644,2.16879
2767.84673,2.16879
2766.81703,2.16881
2765.78732,2.16879
2764.75762,2.16876
2763.72791,2.16873
2762.69821,2.16866
2761.66850,2.16853
2760.63880,2.16833
2759.60909,2.16812
2758.57939,2.16792
2757.54968,2.16777
2756.51998,2.16764
2755.49027,2.16753
2754.46057,2.16740
2753.43086,2.16727
2752.40116,2.16714
2751.37145,2.16703
2750.34175,2.16696
2749.31204,2.16695
2748.28234,2.16699
2747.25263,2.16708
2746.22293,2.16720
2745.19322,2.16736
2744.16352,2.16758
2743.13381,2.16781
2742.10411,2.16802
2741.07440,2.16819
2740.04470,2.16832
2739.01499,2.16840
2737.98529,2.16842
2736.95558,2.16837
2735.92588,2.16826
2734.89617,2.16811
2733.86647,2.16791
2732.83676,2.16765
2731.80706,2.16731
2730.77736,2.16687
2729.74765,2.16635
2728.71795,2.16580
2727.68824,2.16523
2726.65854,2.16467
2725.62883,2.16410
2724.59913,2.16353
2723.56942,2.16293
2722.53972,2.16231
2721.51001,2.16170
2720.48031,2.16117
2719.45060,2.16071
2718.42090,2.16034
2717.39119,2.16002
2716.36149,2.15977
2715.33178,2.15956
2714.30208,2.15938
2713.27237,2.15924
2712.24267,2.15909
2711.21296,2.15895
2710.18326,2.15881
2709.15355,2.15869
2708.12385,2.15861
2707.09414,2.15854
2706.06444,2.15847
2705.03473,2.15840
2704.00503,2.15833
2702.97532,2.15825
2701.94562,2.15814
2700.91591,2.15799
2699.88621,2.15778
2698.85650,2.15753
2697.82680,2.15728
2696.79709,2.15706
2695.76739,2.15690
2694.73768,2.15679
2693.70798,2.15669
2692.67827,2.15658
2691.64857,2.15643
2690.61886,2.15624
2689.58916,2.15602
2688.55945,2.15576
2687.52975,2.15548
2686.50005,2.15518
2685.47034,2.15492
2684.44064,2.15469
2683.41093,2.15450
2682.38123,2.15430
2681.35152,2.15409
2680.32182,2.15389
2679.29211,2.15370
2678.26241,2.15354
2677.23270,2.15338
2676.20300,2.15322
2675.17329,2.15304
2674.14359,2.15287
2673.11388,2.15273
2672.08418,2.15264
2671.05447,2.15258
2670.02477,2.15254
2668.99506,2.15249
2667.96536,2.15241
2666.93565,2.15231
2665.90595,2.15220
2664.87624,2.15208
2663.84654,2.15195
2662.81683,2.15179
2661.78713,2.15160
2660.75742,2.15138
2659.72772,2.15114
2658.69801,2.15087
2657.66831,2.15056
2656.63860,2.15024
2655.60890,2.14991
2654.57919,2.14958
2653.54949,2.14923
2652.51978,2.14884
2651.49008,2.14842
2650.46037,2.14797
2649.43067,2.14751
2648.40096,2.14707
2647.37126,2.14664
2646.34155,2.14622
2645.31185,2.14582
2644.28214,2.14542
2643.25244,2.14503
2642.22274,2.14467
2641.19303,2.14432
2640.16333,2.14399
2639.13362,2.14367
2638.10392,2.14336
2637.07421,2.14308
2636.04451,2.14283
2635.01480,2.14261
2633.98510,2.14241
2632.95539,2.14225
2631.92569,2.14215
2630.89598,2.14210
2629.86628,2.14208
2628.83657,2.14207
2627.80687,2.14207
2626.77716,2.14205
2625.74746,2.14200
2624.71775,2.14192
2623.68805,2.14180
2622.65834,2.14165
2621.62864,2.14147
2620.59893,2.14125
2619.56923,2.14098
2618.53952,2.14068
2617.50982,2.14036
2616.48011,2.14003
2615.45041,2.13969
2614.42070,2.13934
2613.39100,2.13899
2612.36129,2.13862
2611.33159,2.13823
2610.30188,2.13785
2609.27218,2.13751
2608.24247,2.13725
2607.21277,2.13706
2606.18306,2.13694
2605.15336,2.13685
2604.12365,2.13680
2603.09395,2.13677
2602.06424,2.13675
2601.03454,2.13673
2600.00483,2.13671
2598.97513,2.13669
2597.94543,2.13669
2596.91572,2.13671
2595.88602,2.13671
2594.85631,2.13669
2593.82661,2.13666
2592.79690,2.13661
2591.76720,2.13654
2590.73749,2.13643
2589.70779,2.13627
2588.67808,2.13605
2587.64838,2.13576
2586.61867,2.13543
2585.58897,2.13508
2584.55926,2.13473
2583.52956,2.13438
2582.49985,2.13404
2581.47015,2.13369
2580.44044,2.13334
2579.41074,2.13298
2578.38103,2.13262
2577.35133,2.13228
2576.32162,2.13196
2575.29192,2.13169
2574.26221,2.13146
2573.23251,2.13129
2572.20280,2.13114
2571.17310,2.13102
2570.14339,2.13091
2569.11369,2.13084
2568.08398,2.13078
2567.05428,2.13072
2566.02457,2.13062
2564.99487,2.13048
2563.96516,2.13030
2562.93546,2.13008
2561.90575,2.12982
2560.87605,2.12954
2559.84634,2.12922
2558.81664,2.12888
2557.78693,2.12850
2556.75723,2.12810
2555.72752,2.12766
2554.69782,2.12720
2553.66811,2.12677
2552.63841,2.12638
2551.60871,2.12603
2550.57900,2.12569
2549.54930,2.12540
2548.51959,2.12517
2547.48989,2.12501
2546.46018,2.12491
2545.43048,2.12487
2544.40077,2.12489
2543.37107,2.12497
2542.34136,2.12508
2541.31166,2.12524
2540.28195,2.12547
2539.25225,2.12578
2538.22254,2.12615
2537.19284,2.12659
2536.16313,2.12709
2535.13343,2.12763
2534.10372,2.12819
2533.07402,2.12876
2532.04431,2.12932
2531.01461,2.12986
2529.98490,2.13038
2528.95520,2.13089
2527.92549,2.13137
2526.89579,2.13181
2525.86608,2.13221
2524.83638,2.13258
2523.80667,2.13291
2522.77697,2.13319
2521.74726,2.13341
2520.71756,2.13357
2519.68785,2.13367
2518.65815,2.13371
2517.62844,2.13369
2516.59874,2.13364
2515.56903,2.13357
2514.53933,2.13347
2513.50962,2.13333
2512.47992,2.13312
2511.45021,2.13284
2510.42051,2.13245
2509.39080,2.13197
2508.36110,2.13140
2507.33140,2.13074
2506.30169,2.13001
2505.27199,2.12923
2504.24228,2.12839
2503.21258,2.12752
2502.18287,2.12663
2501.15317,2.12572
2500.12346,2.12481
2499.09376,2.12392
2498.06405,2.12307
2497.03435,2.12225
2496.00464,2.12148
2494.97494,2.12075
2493.94523,2.12006
2492.91553,2.11945
2491.88582,2.11890
2490.85612,2.11840
2489.82641,2.11790
2488.79671,2.11738
2487.76700,2.11681
2486.73730,2.11620
2485.70759,2.11554
2484.67789,2.11484
2483.64818,2.11411
2482.61848,2.11333
2481.58877,2.11251
2480.55907,2.11164
2479.52936,2.11075
2478.49966,2.10983
2477.46995,2.10889
2476.44025,2.10794
2475.41054,2.10702
2474.38084,2.10614
2473.35113,2.10529
2472.32143,2.10450
2471.29172,2.10379
2470.26202,2.10316
2469.23231,2.10262
2468.20261,2.10218
2467.17290,2.10180
2466.14320,2.10148
2465.11349,2.10118
2464.08379,2.10092
2463.05409,2.10067
2462.02438,2.10044
2460.99468,2.10023
2459.96497,2.10004
2458.93527,2.09987
2457.90556,2.09970
2456.87586,2.09954
2455.84615,2.09937
2454.81645,2.09916
2453.78674,2.09891
2452.75704,2.09860
2451.72733,2.09828
2450.69763,2.09796
2449.66792,2.09763
2448.63822,2.09733
2447.60851,2.09704
2446.57881,2.09676
2445.54910,2.09650
2444.51940,2.09625
2443.48969,2.09601
2442.45999,2.09576
2441.43028,2.09551
2440.40058,2.09526
2439.37087,2.09500
2438.34117,2.09475
2437.31146,2.09451
2436.28176,2.09428
2435.25205,2.09407
2434.22235,2.09387
2433.19264,2.09368
2432.16294,2.09345
2431.13323,2.09320
2430.10353,2.09292
2429.07382,2.09262
2428.04412,2.09234
2427.01441,2.09208
2425.98471,2.09184
2424.95500,2.09161
2423.92530,2.09136
2422.89559,2.09110
2421.86589,2.09081
2420.83618,2.09049
2419.80648,2.09015
2418.77678,2.08979
2417.74707,2.08941
2416.71737,2.08903
2415.68766,2.08866
2414.65796,2.08829
2413.62825,2.08791
2412.59855,2.08751
2411.56884,2.08710
2410.53914,2.08669
2409.50943,2.08628
2408.47973,2.08587
2407.45002,2.08546
2406.42032,2.08508
2405.39061,2.08474
2404.36091,2.08444
2403.33120,2.08419
2402.30150,2.08398
2401.27179,2.08378
2400.24209,2.08357
2399.21238,2.08334
2398.18268,2.08312
2397.15297,2.08289
2396.12327,2.08267
2395.09356,2.08245
2394.06386,2.08222
2393.03415,2.08198
2392.00445,2.08169
2390.97474,2.08136
2389.94504,2.08097
2388.91533,2.08056
2387.88563,2.08015
2386.85592,2.07978
2385.82622,2.07945
2384.79651,2.07916
2383.76681,2.07892
2382.73710,2.07872
2381.70740,2.07857
2380.67769,2.07844
2379.64799,2.07833
2378.61828,2.07825
2377.58858,2.07820
2376.55887,2.07820
2375.52917,2.07825
2374.49946,2.07838
2373.46976,2.07862
2372.44006,2.07894
2371.41035,2.07932
2370.38065,2.07970
2369.35094,2.08001
2368.32124,2.08024
2367.29153,2.08039
2366.26183,2.08049
2365.23212,2.08054
2364.20242,2.08055
2363.17271,2.08051
2362.14301,2.08042
2361.11330,2.08023
2360.08360,2.07990
2359.05389,2.07945
2358.02419,2.07888
2356.99448,2.07816
2355.96478,2.07730
2354.93507,2.07640
2353.90537,2.07550
2352.87566,2.07466
2351.84596,2.07394
2350.81625,2.07334
2349.78655,2.07290
2348.75684,2.07260
2347.72714,2.07244
2346.69743,2.07239
2345.66773,2.07241
2344.63802,2.07252
2343.60832,2.07271
2342.57861,2.07298
2341.54891,2.07330
2340.51920,2.07364
2339.48950,2.07398
2338.45979,2.07429
2337.43009,2.07454
2336.40038,2.07470
2335.37068,2.07477
2334.34097,2.07472
2333.31127,2.07454
2332.28156,2.07422
2331.25186,2.07379
2330.22215,2.07326
2329.19245,2.07264
2328.16275,2.07194
2327.13304,2.07114
2326.10334,2.07021
2325.07363,2.06918
2324.04393,2.06808
2323.01422,2.06695
2321.98452,2.06580
2320.95481,2.06462
2319.92511,2.06344
2318.89540,2.06225
2317.86570,2.06108
2316.83599,2.05993
2315.80629,2.05885
2314.77658,2.05785
2313.74688,2.05695
2312.71717,2.05616
2311.68747,2.05548
2310.65776,2.05491
2309.62806,2.05446
2308.59835,2.05411
2307.56865,2.05386
2306.53894,2.05367
2305.50924,2.05352
2304.47953,2.05339
2303.44983,2.05326
2302.42012,2.05312
2301.39042,2.05296
2300.36071,2.05281
2299.33101,2.05267
2298.30130,2.05252
2297.27160,2.05234
2296.24189,2.05212
2295.21219,2.05189
2294.18248,2.05163
2293.15278,2.05137
2292.12307,2.05114
2291.09337,2.05094
2290.06366,2.05079
2289.03396,2.05065
2288.00425,2.05054
2286.97455,2.05047
2285.94484,2.05042
2284.91514,2.05040
2283.88544,2.05039
2282.85573,2.05037
2281.82603,2.05031
2280.79632,2.05021
2279.76662,2.05006
2278.73691,2.04987
2277.70721,2.04963
2276.67750,2.04933
2275.64780,2.04898
2274.61809,2.04857
2273.58839,2.04813
2272.55868,2.04767
2271.52898,2.04724
2270.49927,2.04682
2269.46957,2.04644
2268.43986,2.04610
2267.41016,2.04581
2266.38045,2.04556
2265.35075,2.04531
2264.32104,2.04505
2263.29134,2.04481
2262.26163,2.04458
2261.23193,2.04437
2260.20222,2.04418
2259.17252,2.04400
2258.14281,2.04384
2257.11311,2.04368
2256.08340,2.04354
2255.05370,2.04342
2254.02399,2.04331
2252.99429,2.04321
2251.96458,2.04311
2250.93488,2.04303
2249.90517,2.04298
2248.87547,2.04295
2247.84576,2.04294
2246.81606,2.04293
2245.78635,2.04290
2244.75665,2.04283
2243.72694,2.04273
2242.69724,2.04258
2241.66753,2.04236
2240.63783,2.04206
2239.60813,2.04172
2238.57842,2.04135
2237.54872,2.04098
2236.51901,2.04063
2235.48931,2.04030
2234.45960,2.04000
2233.42990,2.03974
2232.40019,2.03952
2231.37049,2.03935
2230.34078,2.03921
2229.31108,2.03908
2228.28137,2.03898
2227.25167,2.03890
2226.22196,2.03885
2225.19226,2.03880
2224.16255,2.03876
2223.13285,2.03872
2222.10314,2.03869
2221.07344,2.03866
2220.04373,2.03862
2219.01403,2.03859
2217.98432,2.03856
2216.95462,2.03851
2215.92491,2.03846
2214.89521,2.03844
2213.86550,2.03844
2212.83580,2.03848
2211.80609,2.03855
2210.77639,2.03865
2209.74668,2.03875
2208.71698,2.03885
2207.68727,2.03895
2206.65757,2.03903
2205.62786,2.03910
2204.59816,2.03915
2203.56845,2.03920
2202.53875,2.03923
2201.50904,2.03924
2200.47934,2.03924
2199.44963,2.03922
2198.41993,2.03919
2197.39022,2.03914
2196.36052,2.03908
2195.33081,2.03900
2194.30111,2.03891
2193.27141,2.03881
2192.24170,2.03872
2191.21200,2.03863
2190.18229,2.03857
2189.15259,2.03851
2188.12288,2.03848
2187.09318,2.03845
2186.06347,2.03843
2185.03377,2.03842
2184.00406,2.03842
2182.97436,2.03842
2181.94465,2.03842
2180.91495,2.03841
2179.88524,2.03839
2178.85554,2.03835
2177.82583,2.03828
2176.79613,2.03817
2175.76642,2.03803
2174.73672,2.03786
2173.70701,2.03766
2172.67731,2.03744
2171.64760,2.03721
2170.61790,2.03699
2169.58819,2.03676
2168.55849,2.03654
2167.52878,2.03633
2166.49908,2.03615
2165.46937,2.03598
2164.43967,2.03584
2163.40996,2.03573
2162.38026,2.03567
2161.35055,2.03566
2160.32085,2.03570
2159.29114,2.03576
2158.26144,2.03586
2157.23173,2.03600
2156.20203,2.03618
2155.17232,2.03640
2154.14262,2.03666
2153.11291,2.03695
2152.08321,2.03727
2151.05350,2.03762
2150.02380,2.03797
2148.99410,2.03832
2147.96439,2.03866
2146.93469,2.03897
2145.90498,2.03925
2144.87528,2.03948
2143.84557,2.03965
2142.81587,2.03977
2141.78616,2.03985
2140.75646,2.03987
2139.72675,2.03984
2138.69705,2.03974
2137.66734,2.03959
2136.63764,2.03939
2135.60793,2.03913
2134.57823,2.03882
2133.54852,2.03850
2132.51882,2.03817
2131.48911,2.03782
2130.45941,2.03743
2129.42970,2.03700
2128.40000,2.03654
2127.37029,2.03605
2126.34059,2.03555
2125.31088,2.03501
2124.28118,2.03445
2123.25147,2.03388
2122.22177,2.03329
2121.19206,2.03268
2120.16236,2.03206
2119.13265,2.03144
2118.10295,2.03085
2117.07324,2.03029
2116.04354,2.02977
2115.01383,2.02930
2113.98413,2.02888
2112.95442,2.02851
2111.92472,2.02821
2110.89501,2.02796
2109.86531,2.02776
2108.83560,2.02763
2107.80590,2.02754
2106.77619,2.02748
2105.74649,2.02744
2104.71679,2.02741
2103.68708,2.02741
2102.65738,2.02745
2101.62767,2.02750
2100.59797,2.02755
2099.56826,2.02759
2098.53856,2.02760
2097.50885,2.02756
2096.47915,2.02749
2095.44944,2.02739
2094.41974,2.02728
2093.39003,2.02717
2092.36033,2.02706
2091.33062,2.02695
2090.30092,2.02684
2089.27121,2.02672
2088.24151,2.02658
2087.21180,2.02643
2086.18210,2.02628
2085.15239,2.02614
2084.12269,2.02602
2083.09298,2.02590
2082.06328,2.02578
2081.03357,2.02565
2080.00387,2.02554
2078.97416,2.02544
2077.94446,2.02536
2076.91475,2.02528
2075.88505,2.02517
2074.85534,2.02506
2073.82564,2.02492
2072.79593,2.02475
2071.76623,2.02455
2070.73652,2.02436
2069.70682,2.02418
2068.67711,2.02401
2067.64741,2.02385
2066.61770,2.02369
2065.58800,2.02353
2064.55829,2.02340
2063.52859,2.02328
2062.49888,2.02320
2061.46918,2.02314
2060.43948,2.02310
2059.40977,2.02306
2058.38007,2.02303
2057.35036,2.02301
2056.32066,2.02300
2055.29095,2.02300
2054.26125,2.02299
2053.23154,2.02295
2052.20184,2.02288
2051.17213,2.02274
2050.14243,2.02256
2049.11272,2.02231
2048.08302,2.02201
2047.05331,2.02168
2046.02361,2.02132
2044.99390,2.02092
2043.96420,2.02046
2042.93449,2.01994
2041.90479,2.01940
2040.87508,2.01882
2039.84538,2.01823
2038.81567,2.01761
2037.78597,2.01697
2036.75626,2.01632
2035.72656,2.01565
2034.69685,2.01500
2033.66715,2.01435
2032.63744,2.01372
2031.60774,2.01310
2030.57803,2.01250
2029.54833,2.01191
2028.51862,2.01134
2027.48892,2.01079
2026.45921,2.01030
2025.42951,2.00986
2024.39980,2.00950
2023.37010,2.00921
2022.34039,2.00897
2021.31069,2.00876
2020.28098,2.00854
2019.25128,2.00835
2018.22157,2.00821
2017.19187,2.00810
2016.16216,2.00799
2015.13246,2.00787
2014.10276,2.00775
2013.07305,2.00761
2012.04335,2.00745
2011.01364,2.00728
2009.98394,2.00709
2008.95423,2.00688
2007.92453,2.00664
2006.89482,2.00635
2005.86512,2.00602
2004.83541,2.00568
2003.80571,2.00533
2002.77600,2.00499
2001.74630,2.00466
2000.71659,2.00436
1999.68689,2.00407
1998.65718,2.00377
1997.62748,2.00347
1996.59777,2.00318
1995.56807,2.00293
1994.53836,2.00275
1993.50866,2.00261
1992.47895,2.00249
1991.44925,2.00235
1990.41954,2.00222
1989.38984,2.00211
1988.36013,2.00204
1987.33043,2.00198
1986.30072,2.00194
1985.27102,2.00191
1984.24131,2.00188
1983.21161,2.00184
1982.18190,2.00178
1981.15220,2.00172
1980.12249,2.00167
1979.09279,2.00163
1978.06308,2.00158
1977.03338,2.00154
1976.00367,2.00150
1974.97397,2.00145
1973.94426,2.00140
1972.91456,2.00134
1971.88485,2.00128
1970.85515,2.00122
1969.82545,2.00115
1968.79574,2.00103
1967.76604,2.00086
1966.73633,2.00065
1965.70663,2.00042
1964.67692,2.00020
1963.64722,1.99998
1962.61751,1.99977
1961.58781,1.99955
1960.55810,1.99933
1959.52840,1.99910
1958.49869,1.99887
1957.46899,1.99863
1956.43928,1.99841
1955.40958,1.99819
1954.37987,1.99795
1953.35017,1.99772
1952.32046,1.99750
1951.29076,1.99727
1950.26105,1.99704
1949.23135,1.99678
1948.20164,1.99650
1947.17194,1.99617
1946.14223,1.99582
1945.11253,1.99543
1944.08282,1.99502
1943.05312,1.99459
1942.02341,1.99417
1940.99371,1.99379
1939.96400,1.99344
1938.93430,1.99314
1937.90459,1.99289
1936.87489,1.99267
1935.84518,1.99251
1934.81548,1.99239
1933.78577,1.99232
1932.75607,1.99228
1931.72636,1.99226
1930.69666,1.99225
1929.66695,1.99225
1928.63725,1.99225
1927.60754,1.99227
1926.57784,1.99228
1925.54814,1.99228
1924.51843,1.99226
1923.48873,1.99222
1922.45902,1.99216
1921.42932,1.99208
1920.39961,1.99199
1919.36991,1.99189
1918.34020,1.99178
1917.31050,1.99169
1916.28079,1.99162
1915.25109,1.99161
1914.22138,1.99164
1913.19168,1.99169
1912.16197,1.99177
1911.13227,1.99189
1910.10256,1.99201
1909.07286,1.99212
1908.04315,1.99222
1907.01345,1.99228
1905.98374,1.99231
1904.95404,1.99232
1903.92433,1.99231
1902.89463,1.99229
1901.86492,1.99225
1900.83522,1.99218
1899.80551,1.99211
1898.77581,1.99202
1897.74610,1.99189
1896.71640,1.99172
1895.68669,1.99151
1894.65699,1.99125
1893.62728,1.99098
1892.59758,1.99070
1891.56787,1.99043
1890.53817,1.99017
1889.50846,1.98988
1888.47876,1.98957
1887.44905,1.98926
1886.41935,1.98895
1885.38964,1.98863
1884.35994,1.98831
1883.33023,1.98799
1882.30053,1.98768
1881.27083,1.98742
1880.24112,1.98720
1879.21142,1.98705
1878.18171,1.98694
1877.15201,1.98688
1876.12230,1.98687
1875.09260,1.98690
1874.06289,1.98694
1873.03319,1.98700
1872.00348,1.98707
1870.97378,1.98716
1869.94407,1.98726
1868.91437,1.98737
1867.88466,1.98747
1866.85496,1.98759
1865.82525,1.98770
1864.79555,1.98780
1863.76584,1.98790
1862.73614,1.98798
1861.70643,1.98804
1860.67673,1.98808
1859.64702,1.98808
1858.61732,1.98806
1857.58761,1.98803
1856.55791,1.98800
1855.52820,1.98796
1854.49850,1.98790
1853.46879,1.98782
1852.43909,1.98774
1851.40938,1.98768
1850.37968,1.98762
1849.34997,1.98757
1848.32027,1.98754
1847.29056,1.98755
1846.26086,1.98758
1845.23115,1.98763
1844.20145,1.98771
1843.17174,1.98786
1842.14204,1.98808
1841.11233,1.98836
1840.08263,1.98867
1839.05292,1.98899
1838.02322,1.98933
1836.99351,1.98966
1835.96381,1.98998
1834.93411,1.99028
1833.90440,1.99058
1832.87470,1.99087
1831.84499,1.99115
1830.81529,1.99140
1829.78558,1.99166
1828.75588,1.99192
1827.72617,1.99221
1826.69647,1.99248
1825.66676,1.99275
1824.63706,1.99300
1823.60735,1.99326
1822.57765,1.99353
1821.54794,1.99382
1820.51824,1.99416
1819.48853,1.99456
1818.45883,1.99506
1817.42912,1.99565
1816.39942,1.99629
1815.36971,1.99699
1814.34001,1.99776
1813.31030,1.99860
1812.28060,1.99952
1811.25089,2.00052
1810.22119,2.00162
1809.19148,2.00284
1808.16178,2.00415
1807.13207,2.00556
1806.10237,2.00704
1805.07266,2.00856
1804.04296,2.01010
1803.01325,2.01160
1801.98355,2.01304
1800.95384,2.01441
1799.92414,2.01568
1798.89443,2.01684
1797.86473,2.01790
1796.83502,2.01882
1795.80532,2.01959
1794.77561,2.02024
1793.74591,2.02075
1792.71620,2.02111
1791.68650,2.02132
1790.65680,2.02144
1789.62709,2.02148
1788.59739,2.02148
1787.56768,2.02145
1786.53798,2.02144
1785.50827,2.02144
1784.47857,2.02146
1783.44886,2.02151
1782.41916,2.02157
1781.38945,2.02165
1780.35975,2.02173
1779.33004,2.02183
1778.30034,2.02196
1777.27063,2.02214
1776.24093,2.02234
1775.21122,2.02255
1774.18152,2.02276
1773.15181,2.02295
1772.12211,2.02307
1771.09240,2.02317
1770.06270,2.02326
1769.03299,2.02333
1768.00329,2.02339
1766.97358,2.02349
1765.94388,2.02366
1764.91417,2.02388
1763.88447,2.02416
1762.85476,2.02449
1761.82506,2.02488
1760.79535,2.02531
1759.76565,2.02579
1758.73594,2.02630
1757.70624,2.02683
1756.67653,2.02740
1755.64683,2.02804
1754.61712,2.02875
1753.58742,2.02949
1752.55771,2.03022
1751.52801,2.03089
1750.49830,2.03145
1749.46860,2.03187
1748.43889,2.03214
1747.40919,2.03224
1746.37949,2.03217
1745.34978,2.03194
1744.32008,2.03154
1743.29037,2.03096
1742.26067,2.03020
1741.23096,2.02927
1740.20126,2.02816
1739.17155,2.02687
1738.14185,2.02542
1737.11214,2.02385
1736.08244,2.02219
1735.05273,2.02045
1734.02303,2.01866
1732.99332,2.01691
1731.96362,2.01527
1730.93391,2.01372
1729.90421,2.01226
1728.87450,2.01087
1727.84480,2.00958
1726.81509,2.00838
1725.78539,2.00727
1724.75568,2.00623
1723.72598,2.00525
1722.69627,2.00434
1721.66657,2.00347
1720.63686,2.00261
1719.60716,2.00170
1718.57745,2.00069
1717.54775,1.99959
1716.51804,1.99840
1715.48834,1.99710
1714.45863,1.99566
1713.42893,1.99409
1712.39922,1.99244
1711.36952,1.99072
1710.33981,1.98895
1709.31011,1.98713
1708.28040,1.98524
1707.25070,1.98331
1706.22099,1.98136
1705.19129,1.97942
1704.16158,1.97756
1703.13188,1.97577
1702.10218,1.97410
1701.07247,1.97252
1700.04277,1.97103
1699.01306,1.96967
1697.98336,1.96844
1696.95365,1.96732
1695.92395,1.96624
1694.89424,1.96523
1693.86454,1.96434
1692.83483,1.96356
1691.80513,1.96290
1690.77542,1.96232
1689.74572,1.96183
1688.71601,1.96144
1687.68631,1.96116
1686.65660,1.96094
1685.62690,1.96075
1684.59719,1.96054
1683.56749,1.96028
1682.53778,1.96008
1681.50808,1.95996
1680.47837,1.95991
1679.44867,1.95991
1678.41896,1.95994
1677.38926,1.95995
1676.35955,1.95991
1675.32985,1.95982
1674.30014,1.95969
1673.27044,1.95953
1672.24073,1.95933
1671.21103,1.95907
1670.18132,1.95877
1669.15162,1.95845
1668.12191,1.95811
1667.09221,1.95778
1666.06250,1.95746
1665.03280,1.95716
1664.00309,1.95689
1662.97339,1.95665
1661.94368,1.95643
1660.91398,1.95624
1659.88427,1.95606
1658.85457,1.95590
1657.82486,1.95582
1656.79516,1.95578
1655.76546,1.95576
1654.73575,1.95572
1653.70605,1.95563
1652.67634,1.95546
1651.64664,1.95526
1650.61693,1.95503
1649.58723,1.95476
1648.55752,1.95446
1647.52782,1.95408
1646.49811,1.95362
1645.46841,1.95310
1644.43870,1.95257
1643.40900,1.95202
1642.37929,1.95147
1641.34959,1.95091
1640.31988,1.95035
1639.29018,1.94981
1638.26047,1.94928
1637.23077,1.94878
1636.20106,1.94829
1635.17136,1.94780
1634.14165,1.94732
1633.11195,1.94690
1632.08224,1.94654
1631.05254,1.94621
1630.02283,1.94592
1628.99313,1.94567
1627.96342,1.94549
1626.93372,1.94539
1625.90401,1.94532
1624.87431,1.94529
1623.84460,1.94528
1622.81490,1.94530
1621.78519,1.94535
1620.75549,1.94543
1619.72578,1.94554
1618.69608,1.94567
1617.66637,1.94579
1616.63667,1.94593
1615.60696,1.94608
1614.57726,1.94625
1613.54755,1.94644
1612.51785,1.94663
1611.48815,1.94681
1610.45844,1.94699
1609.42874,1.94718
1608.39903,1.94741
1607.36933,1.94766
1606.33962,1.94793
1605.30992,1.94823
1604.28021,1.94855
1603.25051,1.94888
1602.22080,1.94921
1601.19110,1.94952
1600.16139,1.94980
1599.13169,1.95005
1598.10198,1.95027
1597.07228,1.95047
1596.04257,1.95065
1595.01287,1.95079
1593.98316,1.95088
1592.95346,1.95092
1591.92375,1.95091
1590.89405,1.95089
1589.86434,1.95083
1588.83464,1.95073
1587.80493,1.95061
1586.77523,1.95049
1585.74552,1.95039
1584.71582,1.95035
1583.68611,1.95036
1582.65641,1.95036
1581.62670,1.95035
1580.59700,1.95034
1579.56729,1.95037
1578.53759,1.95042
1577.50788,1.95050
1576.47818,1.95061
1575.44847,1.95078
1574.41877,1.95104
1573.38906,1.95141
1572.35936,1.95186
1571.32965,1.95237
1570.29995,1.95291
1569.27024,1.95342
1568.24054,1.95391
1567.21084,1.95437
1566.18113,1.95479
1565.15143,1.95512
1564.12172,1.95534
1563.09202,1.95545
1562.06231,1.95544
1561.03261,1.95533
1560.00290,1.95508
1558.97320,1.95464
1557.94349,1.95395
1556.91379,1.95312
1555.88408,1.95221
1554.85438,1.95122
1553.82467,1.95020
1552.79497,1.94920
1551.76526,1.94825
1550.73556,1.94736
1549.70585,1.94656
1548.67615,1.94584
1547.64644,1.94523
1546.61674,1.94474
1545.58703,1.94430
1544.55733,1.94389
1543.52762,1.94354
1542.49792,1.94326
1541.46821,1.94303
1540.43851,1.94284
1539.40880,1.94270
1538.37910,1.94261
1537.34939,1.94263
1536.31969,1.94278
1535.28998,1.94305
1534.26028,1.94340
1533.23057,1.94383
1532.20087,1.94438
1531.17116,1.94500
1530.14146,1.94567
1529.11175,1.94639
1528.08205,1.94717
1527.05234,1.94797
1526.02264,1.94879
1524.99293,1.94963
1523.96323,1.95049
1522.93353,1.95135
1521.90382,1.95212
1520.87412,1.95276
1519.84441,1.95328
1518.81471,1.95374
1517.78500,1.95415
1516.75530,1.95450
1515.72559,1.95479
1514.69589,1.95507
1513.66618,1.95535
1512.63648,1.95566
1511.60677,1.95598
1510.57707,1.95630
1509.54736,1.95657
1508.51766,1.95678
1507.48795,1.95693
1506.45825,1.95702
1505.42854,1.95705
1504.39884,1.95709
1503.36913,1.95717
1502.33943,1.95729
1501.30972,1.95746
1500.28002,1.95767
1499.25031,1.95791
1498.22061,1.95814
1497.19090,1.95833
1496.16120,1.95849
1495.13149,1.95870
1494.10179,1.95900
1493.07208,1.95943
1492.04238,1.96002
1491.01267,1.96081
1489.98297,1.96180
1488.95326,1.96301
1487.92356,1.96445
1486.89385,1.96611
1485.86415,1.96797
1484.83444,1.96999
1483.80474,1.97209
1482.77503,1.97420
1481.74533,1.97619
1480.71562,1.97798
1479.68592,1.97948
1478.65621,1.98059
1477.62651,1.98122
1476.59681,1.98129
1475.56710,1.98071
1474.53740,1.97943
1473.50769,1.97742
1472.47799,1.97469
1471.44828,1.97137
1470.41858,1.96759
1469.38887,1.96347
1468.35917,1.95916
1467.32946,1.95477
1466.29976,1.95046
1465.27005,1.94635
1464.24035,1.94256
1463.21064,1.93921
1462.18094,1.93637
1461.15123,1.93402
1460.12153,1.93210
1459.09182,1.93055
1458.06212,1.92929
1457.03241,1.92824
1456.00271,1.92733
1454.97300,1.92655
1453.94330,1.92584
1452.91359,1.92515
1451.88389,1.92443
1450.85418,1.92364
1449.82448,1.92276
1448.79477,1.92178
1447.76507,1.92073
1446.73536,1.91964
1445.70566,1.91855
1444.67595,1.91748
1443.64625,1.91648
1442.61654,1.91557
1441.58684,1.91479
1440.55713,1.91415
1439.52743,1.91366
1438.49772,1.91334
1437.46802,1.91315
1436.43831,1.91304
1435.40861,1.91298
1434.37890,1.91299
1433.34920,1.91308
1432.31950,1.91321
1431.28979,1.91341
1430.26009,1.91370
1429.23038,1.91406
1428.20068,1.91449
1427.17097,1.91498
1426.14127,1.91551
1425.11156,1.91605
1424.08186,1.91658
1423.05215,1.91707
1422.02245,1.91750
1420.99274,1.91786
1419.96304,1.91815
1418.93333,1.91835
1417.90363,1.91845
1416.87392,1.91846
1415.84422,1.91840
1414.81451,1.91829
1413.78481,1.91814
1412.75510,1.91794
1411.72540,1.91773
1410.69569,1.91752
1409.66599,1.91734
1408.63628,1.91717
1407.60658,1.91701
1406.57687,1.91690
1405.54717,1.91686
1404.51746,1.91688
1403.48776,1.91696
1402.45805,1.91708
1401.42835,1.91722
1400.39864,1.91735
1399.36894,1.91746
1398.33923,1.91750
1397.30953,1.91748
1396.27982,1.91739
1395.25012,1.91724
1394.22041,1.91702
1393.19071,1.91676
1392.16100,1.91645
1391.13130,1.91610
1390.10159,1.91570
1389.07189,1.91525
1388.04219,1.91475
1387.01248,1.91420
1385.98278,1.91360
1384.95307,1.91297
1383.92337,1.91230
1382.89366,1.91162
1381.86396,1.91095
1380.83425,1.91028
1379.80455,1.90962
1378.77484,1.90893
1377.74514,1.90822
1376.71543,1.90750
1375.68573,1.90674
1374.65602,1.90594
1373.62632,1.90511
1372.59661,1.90424
1371.56691,1.90337
1370.53720,1.90250
1369.50750,1.90163
1368.47779,1.90077
1367.44809,1.89990
1366.41838,1.89904
1365.38868,1.89820
1364.35897,1.89738
1363.32927,1.89659
1362.29956,1.89583
1361.26986,1.89513
1360.24015,1.89450
1359.21045,1.89395
1358.18074,1.89348
1357.15104,1.89311
1356.12133,1.89282
1355.09163,1.89259
1354.06192,1.89242
1353.03222,1.89231
1352.00251,1.89225
1350.97281,1.89222
1349.94310,1.89221
1348.91340,1.89220
1347.88369,1.89220
1346.85399,1.89220
1345.82428,1.89220
1344.79458,1.89221
1343.76488,1.89221
1342.73517,1.89220
1341.70547,1.89219
1340.67576,1.89217
1339.64606,1.89216
1338.61635,1.89216
1337.58665,1.89217
1336.55694,1.89222
1335.52724,1.89228
1334.49753,1.89238
1333.46783,1.89251
1332.43812,1.89263
1331.40842,1.89272
1330.37871,1.89278
1329.34901,1.89278
1328.31930,1.89269
1327.28960,1.89251
1326.25989,1.89221
1325.23019,1.89178
1324.20048,1.89122
1323.17078,1.89054
1322.14107,1.88976
1321.11137,1.88890
1320.08166,1.88798
1319.05196,1.88700
1318.02225,1.88601
1316.99255,1.88503
1315.96284,1.88409
1314.93314,1.88321
1313.90343,1.88241
1312.87373,1.88172
1311.84402,1.88116
1310.81432,1.88073
1309.78461,1.88045
1308.75491,1.88028
1307.72520,1.88022
1306.69550,1.88025
1305.66579,1.88033
1304.63609,1.88045
1303.60638,1.88059
1302.57668,1.88071
1301.54697,1.88082
1300.51727,1.88090
1299.48756,1.88095
1298.45786,1.88098
1297.42816,1.88099
1296.39845,1.88098
1295.36875,1.88094
1294.33904,1.88086
1293.30934,1.88074
1292.27963,1.88059
1291.24993,1.88040
1290.22022,1.88020
1289.19052,1.87999
1288.16081,1.87977
1287.13111,1.87956
1286.10140,1.87935
1285.07170,1.87915
1284.04199,1.87894
1283.01229,1.87870
1281.98258,1.87843
1280.95288,1.87811
1279.92317,1.87776
1278.89347,1.87738
1277.86376,1.87698
1276.83406,1.87657
1275.80435,1.87614
1274.77465,1.87573
1273.74494,1.87531
1272.71524,1.87491
1271.68553,1.87450
1270.65583,1.87408
1269.62612,1.87365
1268.59642,1.87323
1267.56671,1.87282
1266.53701,1.87243
1265.50730,1.87206
1264.47760,1.87172
1263.44789,1.87140
1262.41819,1.87109
1261.38848,1.87079
1260.35878,1.87048
1259.32907,1.87014
1258.29937,1.86976
1257.26966,1.86936
1256.23996,1.86892
1255.21025,1.86847
1254.18055,1.86800
1253.15085,1.86750
1252.12114,1.86698
1251.09144,1.86646
1250.06173,1.86594
1249.03203,1.86542
1248.00232,1.86490
1246.97262,1.86439
1245.94291,1.86388
1244.91321,1.86338
1243.88350,1.86290
1242.85380,1.86243
1241.82409,1.86200
1240.79439,1.86159
1239.76468,1.86119
1238.73498,1.86080
1237.70527,1.86040
1236.67557,1.86000
1235.64586,1.85960
1234.61616,1.85918
1233.58645,1.85876
1232.55675,1.85834
1231.52704,1.85791
1230.49734,1.85746
1229.46763,1.85699
1228.43793,1.85652
1227.40822,1.85607
1226.37852,1.85563
1225.34881,1.85521
1224.31911,1.85480
1223.28940,1.85441
1222.25970,1.85404
1221.22999,1.85368
1220.20029,1.85334
1219.17058,1.85303
1218.14088,1.85275
1217.11117,1.85250
1216.08147,1.85226
1215.05176,1.85204
1214.02206,1.85182
1212.99235,1.85162
1211.96265,1.85144
1210.93294,1.85126
1209.90324,1.85110
1208.87354,1.85093
1207.84383,1.85077
1206.81413,1.85058
1205.78442,1.85036
1204.75472,1.85012
1203.72501,1.84988
1202.69531,1.84962
1201.66560,1.84936
1200.63590,1.84909
1199.60619,1.84880
1198.57649,1.84849
1197.54678,1.84817
1196.51708,1.84785
1195.48737,1.84753
1194.45767,1.84722
1193.42796,1.84691
1192.39826,1.84661
1191.36855,1.84633
1190.33885,1.84607
1189.30914,1.84583
1188.27944,1.84564
1187.24973,1.84547
1186.22003,1.84534
1185.19032,1.84522
1184.16062,1.84511
1183.13091,1.84499
1182.10121,1.84484
1181.07150,1.84469
1180.04180,1.84451
1179.01209,1.84431
1177.98239,1.84407
1176.95268,1.84379
1175.92298,1.84345
1174.89327,1.84306
1173.86357,1.84261
1172.83386,1.84210
1171.80416,1.84155
1170.77445,1.84096
1169.74475,1.84035
1168.71504,1.83974
1167.68534,1.83913
1166.65563,1.83854
1165.62593,1.83798
1164.59623,1.83744
1163.56652,1.83694
1162.53682,1.83649
1161.50711,1.83610
1160.47741,1.83576
1159.44770,1.83550
1158.41800,1.83532
1157.38829,1.83523
1156.35859,1.83522
1155.32888,1.83529
1154.29918,1.83543
1153.26947,1.83561
1152.23977,1.83584
1151.21006,1.83609
1150.18036,1.83634
1149.15065,1.83658
1148.12095,1.83680
1147.09124,1.83700
1146.06154,1.83717
1145.03183,1.83728
1144.00213,1.83733
1142.97242,1.83729
1141.94272,1.83716
1140.91301,1.83693
1139.88331,1.83659
1138.85360,1.83616
1137.82390,1.83566
1136.79419,1.83508
1135.76449,1.83444
1134.73478,1.83374
1133.70508,1.83300
1132.67537,1.83224
1131.64567,1.83144
1130.61596,1.83059
1129.58626,1.82971
1128.55655,1.82877
1127.52685,1.82779
1126.49714,1.82675
1125.46744,1.82566
1124.43773,1.82454
1123.40803,1.82339
1122.37832,1.82220
1121.34862,1.82100
1120.31891,1.81978
1119.28921,1.81857
1118.25951,1.81737
1117.22980,1.81620
1116.20010,1.81507
1115.17039,1.81400
1114.14069,1.81300
1113.11098,1.81209
1112.08128,1.81125
1111.05157,1.81048
1110.02187,1.80979
1108.99216,1.80917
1107.96246,1.80859
1106.93275,1.80802
1105.90305,1.80744
1104.87334,1.80682
1103.84364,1.80616
1102.81393,1.80545
1101.78423,1.80467
1100.75452,1.80383
1099.72482,1.80294
1098.69511,1.80201
1097.66541,1.80104
1096.63570,1.80003
1095.60600,1.79902
1094.57629,1.79802
1093.54659,1.79704
1092.51688,1.79609
1091.48718,1.79518
1090.45747,1.79435
1089.42777,1.79360
1088.39806,1.79295
1087.36836,1.79239
1086.33865,1.79191
1085.30895,1.79152
1084.27924,1.79119
1083.24954,1.79090
1082.21983,1.79064
1081.19013,1.79041
1080.16042,1.79020
1079.13072,1.78999
1078.10101,1.78978
1077.07131,1.78957
1076.04160,1.78934
1075.01190,1.78911
1073.98220,1.78885
1072.95249,1.78857
1071.92279,1.78824
1070.89308,1.78788
1069.86338,1.78749
1068.83367,1.78706
1067.80397,1.78659
1066.77426,1.78610
1065.74456,1.78561
1064.71485,1.78511
1063.68515,1.78461
1062.65544,1.78409
1061.62574,1.78358
1060.59603,1.78309
1059.56633,1.78261
1058.53662,1.78215
1057.50692,1.78173
1056.47721,1.78133
1055.44751,1.78095
1054.41780,1.78059
1053.38810,1.78023
1052.35839,1.77987
1051.32869,1.77949
1050.29898,1.77909
1049.26928,1.77864
1048.23957,1.77814
1047.20987,1.77758
1046.18016,1.77695
1045.15046,1.77625
1044.12075,1.77546
1043.09105,1.77458
1042.06134,1.77361
1041.03164,1.77256
1040.00193,1.77143
1038.97223,1.77025
1037.94252,1.76903
1036.91282,1.76781
1035.88311,1.76660
1034.85341,1.76540
1033.82370,1.76424
1032.79400,1.76312
1031.76429,1.76207
1030.73459,1.76110
1029.70489,1.76020
1028.67518,1.75939
1027.64548,1.75867
1026.61577,1.75803
1025.58607,1.75748
1024.55636,1.75702
1023.52666,1.75663
1022.49695,1.75631
1021.46725,1.75605
1020.43754,1.75583
1019.40784,1.75564
1018.37813,1.75547
1017.34843,1.75531
1016.31872,1.75515
1015.28902,1.75500
1014.25931,1.75485
1013.22961,1.75470
1012.19990,1.75454
1011.17020,1.75437
1010.14049,1.75419
1009.11079,1.75401
1008.08108,1.75382
1007.05138,1.75365
1006.02167,1.75350
1004.99197,1.75334
1003.96226,1.75320
1002.93256,1.75308
1001.90285,1.75301
1000.87315,1.75296
999.84344,1.75296
998.81374,1.75301
997.78403,1.75310
996.75433,1.75324
995.72462,1.75343
994.69492,1.75367
993.66521,1.75395
992.63551,1.75428
991.60580,1.75463
990.57610,1.75501
989.54639,1.75539
988.51669,1.75577
987.48698,1.75612
986.45728,1.75642
985.42758,1.75667
984.39787,1.75686
983.36817,1.75700
982.33846,1.75707
981.30876,1.75706
980.27905,1.75697
979.24935,1.75683
978.21964,1.75663
977.18994,1.75640
976.16023,1.75612
975.13053,1.75581
974.10082,1.75547
973.07112,1.75509
972.04141,1.75470
971.01171,1.75430
969.98200,1.75389
968.95230,1.75347
967.92259,1.75303
966.89289,1.75256
965.86318,1.75206
964.83348,1.75151
963.80377,1.75090
962.77407,1.75024
961.74436,1.74951
960.71466,1.74873
959.68495,1.74791
958.65525,1.74706
957.62554,1.74618
956.59584,1.74528
955.56613,1.74436
954.53643,1.74345
953.50672,1.74257
952.47702,1.74171
951.44731,1.74089
950.41761,1.74013
949.38790,1.73942
948.35820,1.73877
947.32849,1.73818
946.29879,1.73766
945.26908,1.73720
944.23938,1.73679
943.20967,1.73642
942.17997,1.73609
941.15026,1.73579
940.12056,1.73554
939.09086,1.73530
938.06115,1.73508
937.03145,1.73485
936.00174,1.73463
934.97204,1.73442
933.94233,1.73421
932.91263,1.73400
931.88292,1.73379
930.85322,1.73359
929.82351,1.73341
928.79381,1.73328
927.76410,1.73320
926.73440,1.73317
925.70469,1.73318
924.67499,1.73320
923.64528,1.73324
922.61558,1.73330
921.58587,1.73337
920.55617,1.73346
919.52646,1.73355
918.49676,1.73363
917.46705,1.73369
916.43735,1.73373
915.40764,1.73372
914.37794,1.73366
913.34823,1.73355
912.31853,1.73339
911.28882,1.73320
910.25912,1.73301
909.22941,1.73280
908.19971,1.73258
907.17000,1.73236
906.14030,1.73217
905.11059,1.73202
904.08089,1.73193
903.05118,1.73185
902.02148,1.73178
900.99177,1.73168
899.96207,1.73156
898.93236,1.73142
897.90266,1.73127
896.87295,1.73109
895.84325,1.73087
894.81355,1.73059
893.78384,1.73024
892.75414,1.72983
891.72443,1.72938
890.69473,1.72890
889.66502,1.72843
888.63532,1.72798
887.60561,1.72756
886.57591,1.72719
885.54620,1.72687
884.51650,1.72657
883.48679,1.72632
882.45709,1.72615
881.42738,1.72606
880.39768,1.72605
879.36797,1.72608
878.33827,1.72614
877.30856,1.72618
876.27886,1.72619
875.24915,1.72617
874.21945,1.72610
873.18974,1.72596
872.16004,1.72574
871.13033,1.72544
870.10063,1.72507
869.07092,1.72466
868.04122,1.72420
867.01151,1.72373
865.98181,1.72326
864.95210,1.72280
863.92240,1.72235
862.89269,1.72191
861.86299,1.72150
860.83328,1.72112
859.80358,1.72078
858.77387,1.72050
857.74417,1.72029
856.71446,1.72015
855.68476,1.72005
854.65505,1.71997
853.62535,1.71988
852.59564,1.71974
851.56594,1.71955
850.53624,1.71929
849.50653,1.71897
848.47683,1.71862
847.44712,1.71825
846.41742,1.71788
845.38771,1.71752
844.35801,1.71716
843.32830,1.71679
842.29860,1.71644
841.26889,1.71611
840.23919,1.71582
839.20948,1.71558
838.17978,1.71538
837.15007,1.71523
836.12037,1.71510
835.09066,1.71500
834.06096,1.71492
833.03125,1.71487
832.00155,1.71480
830.97184,1.71469
829.94214,1.71452
828.91243,1.71427
827.88273,1.71395
826.85302,1.71358
825.82332,1.71318
824.79361,1.71276
823.76391,1.71233
822.73420,1.71189
821.70450,1.71145
820.67479,1.71100
819.64509,1.71053
818.61538,1.71008
817.58568,1.70966
816.55597,1.70927
815.52627,1.70890
814.49656,1.70856
813.46686,1.70824
812.43715,1.70794
811.40745,1.70766
810.37774,1.70743
809.34804,1.70725
808.31833,1.70710
807.28863,1.70698
806.25893,1.70689
805.22922,1.70685
804.19952,1.70687
803.16981,1.70696
802.14011,1.70710
801.11040,1.70727
800.08070,1.70746
799.05099,1.70766
798.02129,1.70787
796.99158,1.70809
795.96188,1.70831
794.93217,1.70851
793.90247,1.70869
792.87276,1.70884
791.84306,1.70896
790.81335,1.70905
789.78365,1.70910
788.75394,1.70912
787.72424,1.70911
786.69453,1.70907
785.66483,1.70904
784.63512,1.70901
783.60542,1.70899
782.57571,1.70900
781.54601,1.70903
780.51630,1.70910
779.48660,1.70920
778.45689,1.70931
777.42719,1.70942
776.39748,1.70953
775.36778,1.70964
774.33807,1.70974
773.30837,1.70983
772.27866,1.70993
771.24896,1.71002
770.21925,1.71007
769.18955,1.71008
768.15984,1.71007
767.13014,1.71002
766.10043,1.70991
765.07073,1.70976
764.04102,1.70957
763.01132,1.70935
761.98161,1.70913
760.95191,1.70892
759.92221,1.70870
758.89250,1.70851
757.86280,1.70834
756.83309,1.70821
755.80339,1.70812
754.77368,1.70805
753.74398,1.70802
752.71427,1.70802
751.68457,1.70807
750.65486,1.70816
749.62516,1.70830
748.59545,1.70850
747.56575,1.70876
746.53604,1.70904
745.50634,1.70933
744.47663,1.70963
743.44693,1.70995
742.41722,1.71027
741.38752,1.71062
740.35781,1.71099
739.32811,1.71134
738.29840,1.71165
737.26870,1.71186
736.23899,1.71192
735.20929,1.71180
734.17958,1.71145
733.14988,1.71086
732.12017,1.71002
731.09047,1.70890
730.06076,1.70750
729.03106,1.70584
728.00135,1.70396
726.97165,1.70187
725.94194,1.69960
724.91224,1.69721
723.88253,1.69476
722.85283,1.69231
721.82312,1.68993
720.79342,1.68770
719.76371,1.68572
718.73401,1.68407
717.70430,1.68283
716.67460,1.68200
715.64490,1.68156
714.61519,1.68147
713.58549,1.68169
712.55578,1.68215
711.52608,1.68282
710.49637,1.68363
709.46667,1.68454
708.43696,1.68549
707.40726,1.68646
706.37755,1.68740
705.34785,1.68828
704.31814,1.68907
703.28844,1.68971
702.25873,1.69014
701.22903,1.69041
700.19932,1.69055
699.16962,1.69056
698.13991,1.69045
697.11021,1.69026
696.08050,1.69003
695.05080,1.68981
694.02109,1.68958
692.99139,1.68932
691.96168,1.68906
690.93198,1.68882
689.90227,1.68865
688.87257,1.68853
687.84286,1.68843
686.81316,1.68836
685.78345,1.68830
684.75375,1.68823
683.72404,1.68814
682.69434,1.68805
681.66463,1.68799
680.63493,1.68790
679.60522,1.68777
678.57552,1.68759
677.54581,1.68739
676.51611,1.68721
675.48640,1.68704
674.45670,1.68681
673.42699,1.68653
672.39729,1.68623
671.36759,1.68596
670.33788,1.68571
669.30818,1.68548
668.27847,1.68534
667.24877,1.68532
666.21906,1.68544
665.18936,1.68566
664.15965,1.68590
663.12995,1.68615
662.10024,1.68640
661.07054,1.68661
660.04083,1.68680
659.01113,1.68699
657.98142,1.68719
656.95172,1.68738
655.92201,1.68751
654.89231,1.68758
653.86260,1.68758
652.83290,1.68754
651.80319,1.68747
650.77349,1.68736
649.74378,1.68719
648.71408,1.68702
647.68437,1.68687
646.65467,1.68674
645.62496,1.68666
644.59526,1.68659
643.56555,1.68651
642.53585,1.68640
641.50614,1.68623
640.47644,1.68598
639.44673,1.68564
638.41703,1.68525
637.38732,1.68482
636.35762,1.68436
635.32791,1.68386
634.29821,1.68334
633.26850,1.68275
632.23880,1.68206
631.20909,1.68124
630.17939,1.68032
629.14968,1.67939
628.11998,1.67853
627.09028,1.67770
626.06057,1.67686
625.03087,1.67602
624.00116,1.67519
622.97146,1.67432
621.94175,1.67343
620.91205,1.67253
619.88234,1.67160
618.85264,1.67067
617.82293,1.66977
616.79323,1.66892
615.76352,1.66812
614.73382,1.66740
613.70411,1.66678
612.67441,1.66624
611.64470,1.66578
610.61500,1.66578
609.58529,1.66578
608.55559,1.66578
607.52588,1.66578
606.49618,1.66578
605.46647,1.66578
604.43677,1.66578
603.40706,1.66578
602.37736,1.66578
601.34765,1.66578
600.31795,1.66578
599.28824,1.66578
