5998.03096,1.70976
5997.00125,1.70225
5995.97155,1.71935
5994.94184,1.74120
5993.91214,1.74663
5992.88243,1.73468
5991.85273,1.73010
5990.82302,1.74190
5989.79332,1.74447
5988.76361,1.72936
5987.73391,1.71216
5986.70420,1.70357
5985.67450,1.71630
5984.64479,1.73668
5983.61509,1.74021
5982.58538,1.72452
5981.55568,1.70778
5980.52597,1.72658
5979.49627,1.78114
5978.46656,1.81292
5977.43686,1.80368
5976.40715,1.77790
5975.37745,1.75922
5974.34774,1.78054
5973.31804,1.80914
5972.28833,1.79096
5971.25863,1.75642
5970.22892,1.73794
5969.19922,1.72816
5968.16951,1.71237
5967.13981,1.70144
5966.11010,1.70729
5965.08040,1.72928
5964.05069,1.74652
5963.02099,1.73669
5961.99128,1.72477
5960.96158,1.72921
5959.93187,1.73382
5958.90217,1.73686
5957.87247,1.74877
5956.84276,1.76046
5955.81306,1.75581
5954.78335,1.76099
5953.75365,1.78575
5952.72394,1.78527
5951.69424,1.75893
5950.66453,1.74763
5949.63483,1.75769
5948.60512,1.75734
5947.57542,1.74840
5946.54571,1.75837
5945.51601,1.77033
5944.48630,1.76634
5943.45660,1.75971
5942.42689,1.75696
5941.39719,1.75732
5940.36748,1.75772
5939.33778,1.76264
5938.30807,1.77208
5937.27837,1.76310
5936.24866,1.73415
5935.21896,1.71228
5934.18925,1.71847
5933.15955,1.74407
5932.12984,1.75925
5931.10014,1.74952
5930.07043,1.73101
5929.04073,1.73230
5928.01102,1.75977
5926.98132,1.77309
5925.95161,1.75648
5924.92191,1.74694
5923.89220,1.74645
5922.86250,1.74463
5921.83279,1.75070
5920.80309,1.75682
5919.77338,1.74378
5918.74368,1.72897
5917.71397,1.73229
5916.68427,1.74376
5915.65456,1.76034
5914.62486,1.76782
5913.59515,1.74741
5912.56545,1.73587
5911.53575,1.75452
5910.50604,1.78119
5909.47634,1.78954
5908.44663,1.77047
5907.41693,1.74710
5906.38722,1.73511
5905.35752,1.73586
5904.32781,1.74957
5903.29811,1.77231
5902.26840,1.79500
5901.23870,1.80028
5900.20899,1.80172
5899.17929,1.81112
5898.14958,1.80441
5897.11988,1.78267
5896.09017,1.76427
5895.06047,1.75732
5894.03076,1.75829
5893.00106,1.76008
5891.97135,1.76198
5890.94165,1.77456
5889.91194,1.78893
5888.88224,1.78232
5887.85253,1.76696
5886.82283,1.75970
5885.79312,1.75646
5884.76342,1.75767
5883.73371,1.76767
5882.70401,1.77202
5881.67430,1.75973
5880.64460,1.75969
5879.61489,1.78746
5878.58519,1.80751
5877.55548,1.79855
5876.52578,1.78289
5875.49607,1.77013
5874.46637,1.76425
5873.43666,1.77061
5872.40696,1.78159
5871.37725,1.78300
5870.34755,1.78126
5869.31784,1.78594
5868.28814,1.78078
5867.25844,1.77170
5866.22873,1.76786
5865.19903,1.76849
5864.16932,1.78126
5863.13962,1.79675
5862.10991,1.79754
5861.08021,1.78076
5860.05050,1.76552
5859.02080,1.76764
5857.99109,1.78951
5856.96139,1.80714
5855.93168,1.79417
5854.90198,1.77168
5853.87227,1.76404
5852.84257,1.77460
5851.81286,1.79401
5850.78316,1.80094
5849.75345,1.79498
5848.72375,1.79191
5847.69404,1.80005
5846.66434,1.81867
5845.63463,1.82532
5844.60493,1.80072
5843.57522,1.77460
5842.54552,1.77121
5841.51581,1.78471
5840.48611,1.79892
5839.45640,1.79374
5838.42670,1.76472
5837.39699,1.74170
5836.36729,1.75002
5835.33758,1.77074
5834.30788,1.78070
5833.27817,1.78139
5832.24847,1.78464
5831.21876,1.79108
5830.18906,1.78208
5829.15935,1.75906
5828.12965,1.75201
5827.09994,1.77015
5826.07024,1.78481
5825.04053,1.77781
5824.01083,1.77469
5822.98113,1.77392
5821.95142,1.75476
5820.92172,1.74280
5819.89201,1.75463
5818.86231,1.77013
5817.83260,1.77935
5816.80290,1.78995
5815.77319,1.79442
5814.74349,1.78827
5813.71378,1.78551
5812.68408,1.79559
5811.65437,1.81135
5810.62467,1.82202
5809.59496,1.82917
5808.56526,1.84260
5807.53555,1.85244
5806.50585,1.84608
5805.47614,1.83993
5804.44644,1.83916
5803.41673,1.83002
5802.38703,1.81542
5801.35732,1.81584
5800.32762,1.81631
5799.29791,1.79636
5798.26821,1.78202
5797.23850,1.77914
5796.20880,1.77654
5795.17909,1.78248
5794.14939,1.80297
5793.11968,1.82654
5792.08998,1.84247
5791.06027,1.84972
5790.03057,1.83533
5789.00086,1.81451
5787.97116,1.82150
5786.94145,1.84275
5785.91175,1.84530
5784.88204,1.82477
5783.85234,1.79699
5782.82263,1.78122
5781.79293,1.78267
5780.76322,1.79864
5779.73352,1.81764
5778.70382,1.82203
5777.67411,1.81734
5776.64441,1.81055
5775.61470,1.79775
5774.58500,1.79515
5773.55529,1.80729
5772.52559,1.81793
5771.49588,1.82125
5770.46618,1.82029
5769.43647,1.82035
5768.40677,1.82221
5767.37706,1.81763
5766.34736,1.80424
5765.31765,1.79363
5764.28795,1.79565
5763.25824,1.80734
5762.22854,1.81422
5761.19883,1.80430
5760.16913,1.78618
5759.13942,1.77246
5758.10972,1.76588
5757.08001,1.76556
5756.05031,1.76837
5755.02060,1.77308
5753.99090,1.77817
5752.96119,1.77584
5751.93149,1.77259
5750.90178,1.78322
5749.87208,1.79366
5748.84237,1.79132
5747.81267,1.79133
5746.78296,1.79532
5745.75326,1.79510
5744.72355,1.79085
5743.69385,1.78603
5742.66414,1.78461
5741.63444,1.78965
5740.60473,1.79527
5739.57503,1.79347
5738.54532,1.78301
5737.51562,1.77242
5736.48591,1.77197
5735.45621,1.78469
5734.42650,1.80258
5733.39680,1.80902
5732.36710,1.80400
5731.33739,1.79904
5730.30769,1.78567
5729.27798,1.77453
5728.24828,1.78990
5727.21857,1.80903
5726.18887,1.81284
5725.15916,1.81664
5724.12946,1.81008
5723.09975,1.78889
5722.07005,1.77553
5721.04034,1.77230
5720.01064,1.77118
5718.98093,1.77187
5717.95123,1.77414
5716.92152,1.77820
5715.89182,1.77859
5714.86211,1.77767
5713.83241,1.78665
5712.80270,1.79746
5711.77300,1.80020
5710.74329,1.80053
5709.71359,1.80002
5708.68388,1.79504
5707.65418,1.78614
5706.62447,1.77611
5705.59477,1.76956
5704.56506,1.77008
5703.53536,1.77729
5702.50565,1.78752
5701.47595,1.79536
5700.44624,1.79547
5699.41654,1.78942
5698.38683,1.78502
5697.35713,1.78284
5696.32742,1.78330
5695.29772,1.78687
5694.26801,1.78988
5693.23831,1.79374
5692.20860,1.78941
5691.17890,1.77869
5690.14919,1.78131
5689.11949,1.79306
5688.08979,1.79496
5687.06008,1.78831
5686.03038,1.78462
5685.00067,1.78637
5683.97097,1.79275
5682.94126,1.79522
5681.91156,1.78801
5680.88185,1.78812
5679.85215,1.79490
5678.82244,1.78974
5677.79274,1.77720
5676.76303,1.77059
5675.73333,1.77602
5674.70362,1.78417
5673.67392,1.78281
5672.64421,1.78218
5671.61451,1.78746
5670.58480,1.78896
5669.55510,1.78633
5668.52539,1.78555
5667.49569,1.78790
5666.46598,1.79039
5665.43628,1.79126
5664.40657,1.79255
5663.37687,1.80168
5662.34716,1.81206
5661.31746,1.81425
5660.28775,1.80647
5659.25805,1.79444
5658.22834,1.78378
5657.19864,1.77456
5656.16893,1.78125
5655.13923,1.79571
5654.10952,1.79273
5653.07982,1.78154
5652.05011,1.77953
5651.02041,1.78297
5649.99070,1.78804
5648.96100,1.79203
5647.93129,1.78475
5646.90159,1.77713
5645.87188,1.77659
5644.84218,1.76995
5643.81248,1.75623
5642.78277,1.74610
5641.75307,1.73886
5640.72336,1.73781
5639.69366,1.75017
5638.66395,1.75905
5637.63425,1.75653
5636.60454,1.75726
5635.57484,1.76757
5634.54513,1.78279
5633.51543,1.78774
5632.48572,1.77403
5631.45602,1.76382
5630.42631,1.77502
5629.39661,1.78906
5628.36690,1.78704
5627.33720,1.77737
5626.30749,1.76955
5625.27779,1.75777
5624.24808,1.73914
5623.21838,1.73145
5622.18867,1.74471
5621.15897,1.75599
5620.12926,1.75207
5619.09956,1.75406
5618.06985,1.76594
5617.04015,1.77538
5616.01044,1.77347
5614.98074,1.76768
5613.95103,1.76490
5612.92133,1.75963
5611.89162,1.75470
5610.86192,1.75869
5609.83221,1.76504
5608.80251,1.76513
5607.77280,1.76180
5606.74310,1.76777
5605.71339,1.78898
5604.68369,1.80645
5603.65398,1.80837
5602.62428,1.80755
5601.59457,1.80534
5600.56487,1.79865
5599.53517,1.78489
5598.50546,1.76885
5597.47576,1.76389
5596.44605,1.76190
5595.41635,1.75716
5594.38664,1.76133
5593.35694,1.77170
5592.32723,1.77689
5591.29753,1.78192
5590.26782,1.79434
5589.23812,1.80366
5588.20841,1.79858
5587.17871,1.79357
5586.14900,1.78948
5585.11930,1.77878
5584.08959,1.76901
5583.05989,1.76753
5582.03018,1.77941
5581.00048,1.79368
5579.97077,1.78969
5578.94107,1.77462
5577.91136,1.76418
5576.88166,1.76017
5575.85195,1.76059
5574.82225,1.76869
5573.79254,1.77562
5572.76284,1.76215
5571.73313,1.74261
5570.70343,1.73826
5569.67372,1.74628
5568.64402,1.76368
5567.61431,1.78681
5566.58461,1.79788
5565.55490,1.78690
5564.52520,1.76736
5563.49549,1.75887
5562.46579,1.76304
5561.43608,1.76079
5560.40638,1.75272
5559.37667,1.75669
5558.34697,1.77113
5557.31726,1.78025
5556.28756,1.77502
5555.25785,1.76815
5554.22815,1.77249
5553.19845,1.77946
5552.16874,1.77628
5551.13904,1.76382
5550.10933,1.75553
5549.07963,1.75847
5548.04992,1.76617
5547.02022,1.76785
5545.99051,1.76364
5544.96081,1.76835
5543.93110,1.77759
5542.90140,1.77121
5541.87169,1.76139
5540.84199,1.76669
5539.81228,1.77666
5538.78258,1.78155
5537.75287,1.78544
5536.72317,1.78790
5535.69346,1.78929
5534.66376,1.79084
5533.63405,1.78379
5532.60435,1.77173
5531.57464,1.76863
5530.54494,1.77154
5529.51523,1.76614
5528.48553,1.75654
5527.45582,1.75952
5526.42612,1.76617
5525.39641,1.76665
5524.36671,1.77354
5523.33700,1.78131
5522.30730,1.77313
5521.27759,1.76302
5520.24789,1.75770
5519.21818,1.75357
5518.18848,1.76024
5517.15877,1.77073
5516.12907,1.76449
5515.09936,1.75419
5514.06966,1.76114
5513.03995,1.77528
5512.01025,1.78451
5510.98054,1.78784
5509.95084,1.78862
5508.92114,1.79953
5507.89143,1.81602
5506.86173,1.81327
5505.83202,1.79129
5504.80232,1.78214
5503.77261,1.79159
5502.74291,1.79043
5501.71320,1.77832
5500.68350,1.77727
5499.65379,1.78464
5498.62409,1.77983
5497.59438,1.76667
5496.56468,1.76731
5495.53497,1.78233
5494.50527,1.79061
5493.47556,1.77723
5492.44586,1.75548
5491.41615,1.74732
5490.38645,1.75237
5489.35674,1.75361
5488.32704,1.75037
5487.29733,1.75809
5486.26763,1.76739
5485.23792,1.76437
5484.20822,1.76089
5483.17851,1.76732
5482.14881,1.77565
5481.11910,1.77453
5480.08940,1.76618
5479.05969,1.75667
5478.02999,1.75046
5477.00028,1.75363
5475.97058,1.76125
5474.94087,1.76536
5473.91117,1.77234
5472.88146,1.77983
5471.85176,1.77802
5470.82205,1.76992
5469.79235,1.75748
5468.76264,1.74655
5467.73294,1.74652
5466.70323,1.75238
5465.67353,1.75811
5464.64383,1.76212
5463.61412,1.76227
5462.58442,1.76194
5461.55471,1.76094
5460.52501,1.75476
5459.49530,1.74952
5458.46560,1.75136
5457.43589,1.75592
5456.40619,1.75703
5455.37648,1.75745
5454.34678,1.75845
5453.31707,1.76074
5452.28737,1.76579
5451.25766,1.77805
5450.22796,1.78784
5449.19825,1.78014
5448.16855,1.76778
5447.13884,1.75985
5446.10914,1.75391
5445.07943,1.75151
5444.04973,1.75716
5443.02002,1.77080
5441.99032,1.77291
5440.96061,1.76218
5439.93091,1.76367
5438.90120,1.77943
5437.87150,1.78698
5436.84179,1.77730
5435.81209,1.75839
5434.78238,1.75129
5433.75268,1.76424
5432.72297,1.77084
5431.69327,1.75844
5430.66356,1.74020
5429.63386,1.73214
5428.60415,1.73644
5427.57445,1.74004
5426.54474,1.73811
5425.51504,1.73912
5424.48533,1.74783
5423.45563,1.76077
5422.42592,1.77123
5421.39622,1.77569
5420.36652,1.77639
5419.33681,1.77136
5418.30711,1.76034
5417.27740,1.75331
5416.24770,1.75636
5415.21799,1.75991
5414.18829,1.75233
5413.15858,1.73969
5412.12888,1.73029
5411.09917,1.72923
5410.06947,1.73446
5409.03976,1.73344
5408.01006,1.73022
5406.98035,1.73174
5405.95065,1.73989
5404.92094,1.75085
5403.89124,1.75057
5402.86153,1.73820
5401.83183,1.73045
5400.80212,1.73583
5399.77242,1.74401
5398.74271,1.74362
5397.71301,1.73693
5396.68330,1.74255
5395.65360,1.76341
5394.62389,1.77606
5393.59419,1.77383
5392.56448,1.76741
5391.53478,1.75383
5390.50507,1.74511
5389.47537,1.75041
5388.44566,1.75336
5387.41596,1.75460
5386.38625,1.76555
5385.35655,1.77418
5384.32684,1.77315
5383.29714,1.76888
5382.26743,1.76425
5381.23773,1.75703
5380.20802,1.74930
5379.17832,1.74616
5378.14861,1.74926
5377.11891,1.75538
5376.08920,1.76037
5375.05950,1.76086
5374.02980,1.74982
5373.00009,1.74179
5371.97039,1.74807
5370.94068,1.75304
5369.91098,1.75243
5368.88127,1.76127
5367.85157,1.77829
5366.82186,1.78172
5365.79216,1.77126
5364.76245,1.76526
5363.73275,1.76120
5362.70304,1.75433
5361.67334,1.75285
5360.64363,1.75416
5359.61393,1.74905
5358.58422,1.74844
5357.55452,1.76096
5356.52481,1.76837
5355.49511,1.76331
5354.46540,1.76363
5353.43570,1.76934
5352.40599,1.76318
5351.37629,1.75405
5350.34658,1.75633
5349.31688,1.77005
5348.28717,1.78313
5347.25747,1.77699
5346.22776,1.76211
5345.19806,1.76870
5344.16835,1.77556
5343.13865,1.75815
5342.10894,1.74268
5341.07924,1.74092
5340.04953,1.75709
5339.01983,1.77746
5337.99012,1.77236
5336.96042,1.75545
5335.93071,1.75270
5334.90101,1.76884
5333.87130,1.78713
5332.84160,1.78906
5331.81189,1.77593
5330.78219,1.76420
5329.75249,1.76170
5328.72278,1.76479
5327.69308,1.76359
5326.66337,1.75389
5325.63367,1.75051
5324.60396,1.75908
5323.57426,1.75996
5322.54455,1.74913
5321.51485,1.74052
5320.48514,1.73587
5319.45544,1.74216
5318.42573,1.75921
5317.39603,1.76536
5316.36632,1.75974
5315.33662,1.75839
5314.30691,1.76342
5313.27721,1.77348
5312.24750,1.77507
5311.21780,1.76252
5310.18809,1.74854
5309.15839,1.74251
5308.12868,1.74877
5307.09898,1.75738
5306.06927,1.76618
5305.03957,1.78229
5304.00986,1.79455
5302.98016,1.78382
5301.95045,1.75781
5300.92075,1.73856
5299.89104,1.73483
5298.86134,1.74335
5297.83163,1.75567
5296.80193,1.76951
5295.77222,1.77912
5294.74252,1.77250
5293.71281,1.76656
5292.68311,1.77646
5291.65340,1.77984
5290.62370,1.76763
5289.59399,1.76241
5288.56429,1.77024
5287.53458,1.77292
5286.50488,1.75800
5285.47518,1.74507
5284.44547,1.75301
5283.41577,1.77119
5282.38606,1.77877
5281.35636,1.77648
5280.32665,1.78100
5279.29695,1.78401
5278.26724,1.77740
5277.23754,1.77279
5276.20783,1.77233
5275.17813,1.77134
5274.14842,1.77119
5273.11872,1.77471
5272.08901,1.77804
5271.05931,1.77314
5270.02960,1.76921
5268.99990,1.77491
5267.97019,1.78525
5266.94049,1.79331
5265.91078,1.79855
5264.88108,1.80652
5263.85137,1.80655
5262.82167,1.79419
5261.79196,1.78993
5260.76226,1.79519
5259.73255,1.79777
5258.70285,1.79580
5257.67314,1.79485
5256.64344,1.79677
5255.61373,1.79435
5254.58403,1.79184
5253.55432,1.80126
5252.52462,1.81389
5251.49491,1.81931
5250.46521,1.81780
5249.43550,1.81481
5248.40580,1.81797
5247.37609,1.82002
5246.34639,1.80731
5245.31668,1.79317
5244.28698,1.79268
5243.25727,1.79375
5242.22757,1.79445
5241.19786,1.79706
5240.16816,1.79527
5239.13846,1.79542
5238.10875,1.80044
5237.07905,1.81143
5236.04934,1.82081
5235.01964,1.81531
5233.98993,1.81141
5232.96023,1.81712
5231.93052,1.81308
5230.90082,1.79941
5229.87111,1.79233
5228.84141,1.79491
5227.81170,1.80143
5226.78200,1.80682
5225.75229,1.81671
5224.72259,1.82381
5223.69288,1.81356
5222.66318,1.79614
5221.63347,1.79448
5220.60377,1.81538
5219.57406,1.83466
5218.54436,1.83599
5217.51465,1.83497
5216.48495,1.84272
5215.45524,1.85456
5214.42554,1.85605
5213.39583,1.84409
5212.36613,1.83687
5211.33642,1.84008
5210.30672,1.84082
5209.27701,1.83834
5208.24731,1.83824
5207.21760,1.83496
5206.18790,1.82769
5205.15819,1.82674
5204.12849,1.83151
5203.09878,1.83528
5202.06908,1.83580
5201.03937,1.83616
5200.00967,1.83480
5198.97996,1.83464
5197.95026,1.83695
5196.92055,1.83692
5195.89085,1.83449
5194.86115,1.82951
5193.83144,1.82420
5192.80174,1.82805
5191.77203,1.84078
5190.74233,1.84886
5189.71262,1.84705
5188.68292,1.84298
5187.65321,1.84543
5186.62351,1.85545
5185.59380,1.86769
5184.56410,1.87198
5183.53439,1.85976
5182.50469,1.84436
5181.47498,1.84077
5180.44528,1.84851
5179.41557,1.85432
5178.38587,1.85373
5177.35616,1.85501
5176.32646,1.85133
5175.29675,1.84309
5174.26705,1.84591
5173.23734,1.85290
5172.20764,1.84941
5171.17793,1.84955
5170.14823,1.85941
5169.11852,1.86196
5168.08882,1.85689
5167.05911,1.86296
5166.02941,1.87500
5164.99970,1.87226
5163.97000,1.86015
5162.94029,1.84497
5161.91059,1.83365
5160.88088,1.83756
5159.85118,1.84124
5158.82147,1.83504
5157.79177,1.83263
5156.76206,1.84236
5155.73236,1.85893
5154.70265,1.86983
5153.67295,1.86861
5152.64324,1.85745
5151.61354,1.85032
5150.58384,1.85187
5149.55413,1.85340
5148.52443,1.85831
5147.49472,1.86293
5146.46502,1.86373
5145.43531,1.86927
5144.40561,1.87705
5143.37590,1.88356
5142.34620,1.88197
5141.31649,1.87104
5140.28679,1.86967
5139.25708,1.87752
5138.22738,1.87371
5137.19767,1.86594
5136.16797,1.86775
5135.13826,1.86930
5134.10856,1.86096
5133.07885,1.85625
5132.04915,1.85709
5131.01944,1.85037
5129.98974,1.84322
5128.96003,1.84559
5127.93033,1.85177
5126.90062,1.85558
5125.87092,1.86372
5124.84121,1.87273
5123.81151,1.87359
5122.78180,1.87021
5121.75210,1.86158
5120.72239,1.85646
5119.69269,1.86344
5118.66298,1.86977
5117.63328,1.86440
5116.60357,1.85429
5115.57387,1.85472
5114.54416,1.86663
5113.51446,1.87042
5112.48475,1.86453
5111.45505,1.86669
5110.42534,1.86084
5109.39564,1.83494
5108.36593,1.82450
5107.33623,1.83641
5106.30653,1.84224
5105.27682,1.83986
5104.24712,1.84387
5103.21741,1.85165
5102.18771,1.85318
5101.15800,1.85349
5100.12830,1.85667
5099.09859,1.85768
5098.06889,1.86071
5097.03918,1.86901
5096.00948,1.87194
5094.97977,1.86894
5093.95007,1.86651
5092.92036,1.85508
5091.89066,1.83911
5090.86095,1.83727
5089.83125,1.84536
5088.80154,1.84811
5087.77184,1.85006
5086.74213,1.85514
5085.71243,1.85599
5084.68272,1.84917
5083.65302,1.83872
5082.62331,1.83525
5081.59361,1.84580
5080.56390,1.85366
5079.53420,1.84424
5078.50449,1.84049
5077.47479,1.84700
5076.44508,1.83778
5075.41538,1.82816
5074.38567,1.84291
5073.35597,1.85846
5072.32626,1.85357
5071.29656,1.85100
5070.26685,1.85844
5069.23715,1.85007
5068.20744,1.83344
5067.17774,1.83666
5066.14803,1.85026
5065.11833,1.85641
5064.08862,1.85766
5063.05892,1.84944
5062.02921,1.83379
5060.99951,1.83108
5059.96981,1.84530
5058.94010,1.85461
5057.91040,1.83950
5056.88069,1.82355
5055.85099,1.83154
5054.82128,1.84705
5053.79158,1.85029
5052.76187,1.85253
5051.73217,1.86179
5050.70246,1.86238
5049.67276,1.85444
5048.64305,1.85306
5047.61335,1.85548
5046.58364,1.85999
5045.55394,1.86632
5044.52423,1.86191
5043.49453,1.84354
5042.46482,1.83491
5041.43512,1.84532
5040.40541,1.85256
5039.37571,1.84575
5038.34600,1.84203
5037.31630,1.84627
5036.28659,1.85156
5035.25689,1.85285
5034.22718,1.84436
5033.19748,1.83345
5032.16777,1.82790
5031.13807,1.82838
5030.10836,1.82740
5029.07866,1.82315
5028.04895,1.82640
5027.01925,1.83440
5025.98954,1.84002
5024.95984,1.84429
5023.93013,1.84150
5022.90043,1.83424
5021.87072,1.83421
5020.84102,1.83757
5019.81131,1.83614
5018.78161,1.83624
5017.75190,1.84247
5016.72220,1.84931
5015.69250,1.85062
5014.66279,1.84507
5013.63309,1.83227
5012.60338,1.82410
5011.57368,1.83216
5010.54397,1.83936
5009.51427,1.83480
5008.48456,1.82525
5007.45486,1.81478
5006.42515,1.81435
5005.39545,1.82185
5004.36574,1.82493
5003.33604,1.82597
5002.30633,1.83157
5001.27663,1.84079
5000.24692,1.84619
4999.21722,1.83911
4998.18751,1.82659
4997.15781,1.82308
4996.12810,1.82855
4995.09840,1.83994
4994.06869,1.84476
4993.03899,1.83458
4992.00928,1.82751
4990.97958,1.83002
4989.94987,1.82832
4988.92017,1.82196
4987.89046,1.82238
4986.86076,1.83088
4985.83105,1.83922
4984.80135,1.83681
4983.77164,1.82943
4982.74194,1.83140
4981.71223,1.83771
4980.68253,1.83725
4979.65282,1.83141
4978.62312,1.82646
4977.59341,1.82720
4976.56371,1.82870
4975.53400,1.83025
4974.50430,1.83496
4973.47459,1.82932
4972.44489,1.81674
4971.41519,1.81893
4970.38548,1.82893
4969.35578,1.82991
4968.32607,1.82728
4967.29637,1.82354
4966.26666,1.81577
4965.23696,1.81337
4964.20725,1.82312
4963.17755,1.83625
4962.14784,1.83946
4961.11814,1.83019
4960.08843,1.81986
4959.05873,1.82146
4958.02902,1.82626
4956.99932,1.82473
4955.96961,1.83001
4954.93991,1.84166
4953.91020,1.84530
4952.88050,1.84436
4951.85079,1.84396
4950.82109,1.83701
4949.79138,1.82254
4948.76168,1.81068
4947.73197,1.81125
4946.70227,1.81971
4945.67256,1.82532
4944.64286,1.82829
4943.61315,1.82851
4942.58345,1.82208
4941.55374,1.81406
4940.52404,1.81285
4939.49433,1.81461
4938.46463,1.81701
4937.43492,1.82495
4936.40522,1.83036
4935.37551,1.82766
4934.34581,1.82400
4933.31610,1.82444
4932.28640,1.83049
4931.25669,1.83580
4930.22699,1.83030
4929.19728,1.81945
4928.16758,1.81446
4927.13788,1.81456
4926.10817,1.81349
4925.07847,1.81286
4924.04876,1.81689
4923.01906,1.82149
4921.98935,1.82067
4920.95965,1.82174
4919.92994,1.83040
4918.90024,1.84099
4917.87053,1.84431
4916.84083,1.83425
4915.81112,1.82609
4914.78142,1.83262
4913.75171,1.84322
4912.72201,1.84787
4911.69230,1.84366
4910.66260,1.83478
4909.63289,1.83096
4908.60319,1.83347
4907.57348,1.83849
4906.54378,1.84225
4905.51407,1.83960
4904.48437,1.83406
4903.45466,1.83141
4902.42496,1.82978
4901.39525,1.82942
4900.36555,1.82942
4899.33584,1.82993
4898.30614,1.83244
4897.27643,1.83429
4896.24673,1.83256
4895.21702,1.82759
4894.18732,1.82323
4893.15761,1.82182
4892.12791,1.82322
4891.09820,1.82603
4890.06850,1.83189
4889.03879,1.84120
4888.00909,1.84631
4886.97938,1.84265
4885.94968,1.83382
4884.91997,1.82806
4883.89027,1.82778
4882.86056,1.82709
4881.83086,1.82416
4880.80116,1.82058
4879.77145,1.82032
4878.74175,1.83099
4877.71204,1.84568
4876.68234,1.84501
4875.65263,1.83359
4874.62293,1.83269
4873.59322,1.83895
4872.56352,1.83524
4871.53381,1.82528
4870.50411,1.82403
4869.47440,1.83402
4868.44470,1.83824
4867.41499,1.83018
4866.38529,1.82552
4865.35558,1.83123
4864.32588,1.83683
4863.29617,1.83377
4862.26647,1.83025
4861.23676,1.83265
4860.20706,1.83292
4859.17735,1.83030
4858.14765,1.83153
4857.11794,1.83075
4856.08824,1.82540
4855.05853,1.82234
4854.02883,1.82623
4852.99912,1.83642
4851.96942,1.84402
4850.93971,1.84220
4849.91001,1.83335
4848.88030,1.82723
4847.85060,1.83057
4846.82089,1.83567
4845.79119,1.83390
4844.76148,1.83074
4843.73178,1.82926
4842.70207,1.82757
4841.67237,1.83254
4840.64266,1.84013
4839.61296,1.83902
4838.58325,1.83431
4837.55355,1.83424
4836.52385,1.83784
4835.49414,1.84117
4834.46444,1.84207
4833.43473,1.83796
4832.40503,1.83075
4831.37532,1.83076
4830.34562,1.83475
4829.31591,1.83489
4828.28621,1.83552
4827.25650,1.83328
4826.22680,1.82714
4825.19709,1.82710
4824.16739,1.83360
4823.13768,1.83970
4822.10798,1.84229
4821.07827,1.83985
4820.04857,1.83329
4819.01886,1.82770
4817.98916,1.82793
4816.95945,1.83009
4815.92975,1.82898
4814.90004,1.83194
4813.87034,1.83930
4812.84063,1.83973
4811.81093,1.83594
4810.78122,1.83471
4809.75152,1.83549
4808.72181,1.83690
4807.69211,1.83717
4806.66240,1.83950
4805.63270,1.84661
4804.60299,1.85140
4803.57329,1.84735
4802.54358,1.83832
4801.51388,1.83347
4800.48417,1.83448
4799.45447,1.83931
4798.42476,1.84648
4797.39506,1.85103
4796.36535,1.84890
4795.33565,1.84663
4794.30594,1.84862
4793.27624,1.84643
4792.24654,1.84067
4791.21683,1.84021
4790.18713,1.84029
4789.15742,1.83674
4788.12772,1.84004
4787.09801,1.85123
4786.06831,1.85478
4785.03860,1.84601
4784.00890,1.83559
4782.97919,1.82984
4781.94949,1.83137
4780.91978,1.84159
4779.89008,1.85097
4778.86037,1.85313
4777.83067,1.85313
4776.80096,1.85028
4775.77126,1.84316
4774.74155,1.83452
4773.71185,1.82773
4772.68214,1.82903
4771.65244,1.83785
4770.62273,1.84078
4769.59303,1.83290
4768.56332,1.82682
4767.53362,1.82780
4766.50391,1.82876
4765.47421,1.82793
4764.44450,1.82940
4763.41480,1.83512
4762.38509,1.84239
4761.35539,1.84638
4760.32568,1.84766
4759.29598,1.84508
4758.26627,1.83470
4757.23657,1.82431
4756.20686,1.82433
4755.17716,1.83389
4754.14745,1.84545
4753.11775,1.84995
4752.08804,1.84405
4751.05834,1.83763
4750.02863,1.83650
4748.99893,1.83623
4747.96923,1.83736
4746.93952,1.83985
4745.90982,1.83850
4744.88011,1.83627
4743.85041,1.83951
4742.82070,1.84567
4741.79100,1.84921
4740.76129,1.84868
4739.73159,1.84661
4738.70188,1.84210
4737.67218,1.83534
4736.64247,1.83160
4735.61277,1.83052
4734.58306,1.83202
4733.55336,1.83501
4732.52365,1.83587
4731.49395,1.83600
4730.46424,1.83851
4729.43454,1.84332
4728.40483,1.84607
4727.37513,1.84557
4726.34542,1.84801
4725.31572,1.85282
4724.28601,1.85102
4723.25631,1.84430
4722.22660,1.84115
4721.19690,1.84117
4720.16719,1.84195
4719.13749,1.84465
4718.10778,1.84851
4717.07808,1.84873
4716.04837,1.84345
4715.01867,1.83911
4713.98896,1.83727
4712.95926,1.83651
4711.92955,1.84039
4710.89985,1.84512
4709.87014,1.84401
4708.84044,1.83956
4707.81073,1.83597
4706.78103,1.83554
4705.75132,1.83474
4704.72162,1.83093
4703.69191,1.83129
4702.66221,1.83574
4701.63251,1.83717
4700.60280,1.83471
4699.57310,1.83291
4698.54339,1.83941
4697.51369,1.85036
4696.48398,1.85285
4695.45428,1.84830
4694.42457,1.84705
4693.39487,1.84822
4692.36516,1.84581
4691.33546,1.84234
4690.30575,1.84144
4689.27605,1.84040
4688.24634,1.83785
4687.21664,1.83696
4686.18693,1.84139
4685.15723,1.84719
4684.12752,1.84566
4683.09782,1.84181
4682.06811,1.84341
4681.03841,1.84616
4680.00870,1.84742
4678.97900,1.84932
4677.94929,1.84923
4676.91959,1.84285
4675.88988,1.83694
4674.86018,1.83993
4673.83047,1.84437
4672.80077,1.84287
4671.77106,1.84135
4670.74136,1.84237
4669.71165,1.84258
4668.68195,1.84412
4667.65224,1.84710
4666.62254,1.84842
4665.59283,1.84900
4664.56313,1.85082
4663.53342,1.85201
4662.50372,1.85011
4661.47401,1.85038
4660.44431,1.85374
4659.41460,1.85318
4658.38490,1.85043
4657.35520,1.84806
4656.32549,1.84468
4655.29579,1.84422
4654.26608,1.84708
4653.23638,1.84758
4652.20667,1.84613
4651.17697,1.84576
4650.14726,1.84578
4649.11756,1.84742
4648.08785,1.85024
4647.05815,1.85054
4646.02844,1.85075
4644.99874,1.85235
4643.96903,1.85104
4642.93933,1.84809
4641.90962,1.84803
4640.87992,1.85029
4639.85021,1.85062
4638.82051,1.84843
4637.79080,1.84690
4636.76110,1.84833
4635.73139,1.85103
4634.70169,1.84813
4633.67198,1.84200
4632.64228,1.84035
4631.61257,1.84178
4630.58287,1.84324
4629.55316,1.84428
4628.52346,1.84513
4627.49375,1.84374
4626.46405,1.84024
4625.43434,1.84074
4624.40464,1.84298
4623.37493,1.84159
4622.34523,1.84134
4621.31552,1.84276
4620.28582,1.84251
4619.25611,1.84318
4618.22641,1.84405
4617.19670,1.84380
4616.16700,1.84421
4615.13729,1.84496
4614.10759,1.84580
4613.07789,1.84894
4612.04818,1.85058
4611.01848,1.84474
4609.98877,1.83819
4608.95907,1.83914
4607.92936,1.84361
4606.89966,1.84329
4605.86995,1.84050
4604.84025,1.84134
4603.81054,1.84387
4602.78084,1.84615
4601.75113,1.84619
4600.72143,1.84289
4599.69172,1.83794
4598.66202,1.83408
4597.63231,1.83675
4596.60261,1.84347
4595.57290,1.84680
4594.54320,1.84983
4593.51349,1.85364
4592.48379,1.85273
4591.45408,1.84688
4590.42438,1.83843
4589.39467,1.83352
4588.36497,1.83438
4587.33526,1.83518
4586.30556,1.83521
4585.27585,1.83586
4584.24615,1.83694
4583.21644,1.84076
4582.18674,1.84652
4581.15703,1.85070
4580.12733,1.85270
4579.09762,1.84754
4578.06792,1.83731
4577.03821,1.83425
4576.00851,1.83753
4574.97880,1.84084
4573.94910,1.84384
4572.91939,1.84580
4571.88969,1.84769
4570.85998,1.85015
4569.83028,1.84990
4568.80058,1.84765
4567.77087,1.84665
4566.74117,1.84529
4565.71146,1.84181
4564.68176,1.83799
4563.65205,1.83703
4562.62235,1.83912
4561.59264,1.84147
4560.56294,1.84178
4559.53323,1.83979
4558.50353,1.83932
4557.47382,1.84080
4556.44412,1.84188
4555.41441,1.84470
4554.38471,1.84744
4553.35500,1.84654
4552.32530,1.84390
4551.29559,1.83941
4550.26589,1.83465
4549.23618,1.83476
4548.20648,1.83847
4547.17677,1.83969
4546.14707,1.83893
4545.11736,1.84082
4544.08766,1.84295
4543.05795,1.84281
4542.02825,1.84424
4540.99854,1.84765
4539.96884,1.84918
4538.93913,1.84770
4537.90943,1.84846
4536.87972,1.85482
4535.85002,1.85979
4534.82031,1.85835
4533.79061,1.85500
4532.76090,1.85363
4531.73120,1.85193
4530.70149,1.84701
4529.67179,1.84356
4528.64208,1.84647
4527.61238,1.85063
4526.58267,1.85133
4525.55297,1.84979
4524.52326,1.84723
4523.49356,1.84733
4522.46386,1.84923
4521.43415,1.84747
4520.40445,1.84518
4519.37474,1.84713
4518.34504,1.85000
4517.31533,1.84930
4516.28563,1.84576
4515.25592,1.84139
4514.22622,1.83919
4513.19651,1.84220
4512.16681,1.84561
4511.13710,1.84452
4510.10740,1.84443
4509.07769,1.84806
4508.04799,1.84879
4507.01828,1.84657
4505.98858,1.84670
4504.95887,1.84775
4503.92917,1.84870
4502.89946,1.84989
4501.86976,1.85004
4500.84005,1.84929
4499.81035,1.84948
4498.78064,1.85275
4497.75094,1.85416
4496.72123,1.84941
4495.69153,1.84735
4494.66182,1.85201
4493.63212,1.85520
4492.60241,1.85582
4491.57271,1.85834
4490.54300,1.86061
4489.51330,1.86089
4488.48359,1.86068
4487.45389,1.86091
4486.42418,1.86005
4485.39448,1.85658
4484.36477,1.85589
4483.33507,1.85844
4482.30536,1.85872
4481.27566,1.86018
4480.24595,1.86340
4479.21625,1.86321
4478.18655,1.86109
4477.15684,1.86053
4476.12714,1.86305
4475.09743,1.86417
4474.06773,1.86205
4473.03802,1.86102
4472.00832,1.86062
4470.97861,1.86066
4469.94891,1.86317
4468.91920,1.86628
4467.88950,1.87204
4466.85979,1.87995
4465.83009,1.87892
4464.80038,1.87086
4463.77068,1.86903
4462.74097,1.87346
4461.71127,1.87641
4460.68156,1.87478
4459.65186,1.87263
4458.62215,1.87527
4457.59245,1.87939
4456.56274,1.87935
4455.53304,1.87817
4454.50333,1.87980
4453.47363,1.88377
4452.44392,1.88610
4451.41422,1.88521
4450.38451,1.88608
4449.35481,1.88849
4448.32510,1.88690
4447.29540,1.88428
4446.26569,1.88770
4445.23599,1.89429
4444.20628,1.89494
4443.17658,1.89017
4442.14687,1.88960
4441.11717,1.89440
4440.08746,1.89875
4439.05776,1.90251
4438.02805,1.90505
4436.99835,1.90534
4435.96864,1.90766
4434.93894,1.90971
4433.90924,1.90491
4432.87953,1.89997
4431.84983,1.90330
4430.82012,1.90951
4429.79042,1.91429
4428.76071,1.91869
4427.73101,1.92320
4426.70130,1.92849
4425.67160,1.93121
4424.64189,1.92954
4423.61219,1.92610
4422.58248,1.92468
4421.55278,1.92517
4420.52307,1.92538
4419.49337,1.92763
4418.46366,1.92988
4417.43396,1.93020
4416.40425,1.93214
4415.37455,1.93362
4414.34484,1.93255
4413.31514,1.93448
4412.28543,1.94426
4411.25573,1.95679
4410.22602,1.96043
4409.19632,1.95464
4408.16661,1.94931
4407.13691,1.94938
4406.10720,1.95288
4405.07750,1.95729
4404.04779,1.96222
4403.01809,1.96710
4401.98838,1.97302
4400.95868,1.97999
4399.92897,1.98223
4398.89927,1.97659
4397.86956,1.96987
4396.83986,1.96613
4395.81015,1.96456
4394.78045,1.96640
4393.75074,1.96935
4392.72104,1.97337
4391.69133,1.98213
4390.66163,1.98988
4389.63193,1.99021
4388.60222,1.98904
4387.57252,1.98843
4386.54281,1.98463
4385.51311,1.98338
4384.48340,1.98763
4383.45370,1.99212
4382.42399,1.99593
4381.39429,1.99721
4380.36458,1.99430
4379.33488,1.99365
4378.30517,1.99625
4377.27547,1.99878
4376.24576,2.00097
4375.21606,2.00076
4374.18635,1.99953
4373.15665,2.00067
4372.12694,2.00335
4371.09724,2.00734
4370.06753,2.01342
4369.03783,2.01614
4368.00812,2.01382
4366.97842,2.01644
4365.94871,2.02196
4364.91901,2.02146
4363.88930,2.02065
4362.85960,2.02313
4361.82989,2.02514
4360.80019,2.02439
4359.77048,2.02429
4358.74078,2.02678
4357.71107,2.02673
4356.68137,2.02807
4355.65166,2.03456
4354.62196,2.03676
4353.59225,2.03612
4352.56255,2.04270
4351.53284,2.05082
4350.50314,2.05185
4349.47343,2.04911
4348.44373,2.04766
4347.41402,2.04727
4346.38432,2.04640
4345.35461,2.04812
4344.32491,2.05376
4343.29521,2.05738
4342.26550,2.05786
4341.23580,2.05912
4340.20609,2.06082
4339.17639,2.06390
4338.14668,2.06453
4337.11698,2.05917
4336.08727,2.05910
4335.05757,2.06616
4334.02786,2.07265
4332.99816,2.07698
4331.96845,2.07596
4330.93875,2.07088
4329.90904,2.06487
4328.87934,2.06051
4327.84963,2.06531
4326.81993,2.07874
4325.79022,2.08643
4324.76052,2.08009
4323.73081,2.07015
4322.70111,2.06872
4321.67140,2.07303
4320.64170,2.07130
4319.61199,2.06112
4318.58229,2.05123
4317.55258,2.04733
4316.52288,2.04600
4315.49317,2.04255
4314.46347,2.03797
4313.43376,2.03489
4312.40406,2.03419
4311.37435,2.03224
4310.34465,2.02662
4309.31494,2.02407
4308.28524,2.02554
4307.25553,2.02491
4306.22583,2.02303
4305.19612,2.02021
4304.16642,2.01528
4303.13671,2.01370
4302.10701,2.01871
4301.07730,2.02285
4300.04760,2.02004
4299.01790,2.01558
4297.98819,2.01478
4296.95849,2.01534
4295.92878,2.01476
4294.89908,2.01391
4293.86937,2.01436
4292.83967,2.01919
4291.80996,2.02332
4290.78026,2.02130
4289.75055,2.02006
4288.72085,2.02092
4287.69114,2.02173
4286.66144,2.02397
4285.63173,2.02341
4284.60203,2.02184
4283.57232,2.02525
4282.54262,2.02859
4281.51291,2.02996
4280.48321,2.03256
4279.45350,2.03720
4278.42380,2.04126
4277.39409,2.04099
4276.36439,2.03824
4275.33468,2.03361
4274.30498,2.03429
4273.27527,2.04418
4272.24557,2.04391
4271.21586,2.02965
4270.18616,2.02269
4269.15645,2.02702
4268.12675,2.03556
4267.09704,2.04722
4266.06734,2.05583
4265.03763,2.05821
4264.00793,2.05941
4262.97822,2.05946
4261.94852,2.05813
4260.91881,2.06041
4259.88911,2.06708
4258.85940,2.07112
4257.82970,2.06886
4256.79999,2.06264
4255.77029,2.05379
4254.74059,2.04730
4253.71088,2.04881
4252.68118,2.05275
4251.65147,2.05152
4250.62177,2.04723
4249.59206,2.04238
4248.56236,2.04167
4247.53265,2.04782
4246.50295,2.04974
4245.47324,2.04231
4244.44354,2.03707
4243.41383,2.03576
4242.38413,2.02977
4241.35442,2.02449
4240.32472,2.02501
4239.29501,2.02680
4238.26531,2.02928
4237.23560,2.02958
4236.20590,2.02751
4235.17619,2.02617
4234.14649,2.02550
4233.11678,2.02846
4232.08708,2.03077
4231.05737,2.02718
4230.02767,2.02558
4228.99796,2.02882
4227.96826,2.03127
4226.93855,2.03248
4225.90885,2.03255
4224.87914,2.02765
4223.84944,2.02189
4222.81973,2.02281
4221.79003,2.02655
4220.76032,2.02793
4219.73062,2.02794
4218.70091,2.02314
4217.67121,2.01630
4216.64150,2.01898
4215.61180,2.02865
4214.58209,2.03546
4213.55239,2.03620
4212.52268,2.03347
4211.49298,2.03296
4210.46328,2.03164
4209.43357,2.02674
4208.40387,2.02526
4207.37416,2.02811
4206.34446,2.03098
4205.31475,2.03244
4204.28505,2.03113
4203.25534,2.03240
4202.22564,2.03806
4201.19593,2.03970
4200.16623,2.03681
4199.13652,2.03558
4198.10682,2.03787
4197.07711,2.03961
4196.04741,2.03815
4195.01770,2.03755
4193.98800,2.03772
4192.95829,2.03524
4191.92859,2.03141
4190.89888,2.02851
4189.86918,2.02863
4188.83947,2.03245
4187.80977,2.03620
4186.78006,2.03893
4185.75036,2.04182
4184.72065,2.04387
4183.69095,2.04541
4182.66124,2.04495
4181.63154,2.04208
4180.60183,2.03936
4179.57213,2.03897
4178.54242,2.03974
4177.51272,2.03794
4176.48301,2.03595
4175.45331,2.03715
4174.42360,2.03899
4173.39390,2.03687
4172.36419,2.03300
4171.33449,2.03513
4170.30478,2.03938
4169.27508,2.03628
4168.24537,2.03008
4167.21567,2.02957
4166.18596,2.03337
4165.15626,2.03461
4164.12656,2.03474
4163.09685,2.03477
4162.06715,2.03115
4161.03744,2.02797
4160.00774,2.02844
4158.97803,2.03207
4157.94833,2.03955
4156.91862,2.04387
4155.88892,2.04036
4154.85921,2.03702
4153.82951,2.03802
4152.79980,2.03886
4151.77010,2.03820
4150.74039,2.03767
4149.71069,2.03642
4148.68098,2.03347
4147.65128,2.03183
4146.62157,2.03169
4145.59187,2.02884
4144.56216,2.02613
4143.53246,2.02868
4142.50275,2.03138
4141.47305,2.02919
4140.44334,2.02878
4139.41364,2.03479
4138.38393,2.04076
4137.35423,2.03970
4136.32452,2.03362
4135.29482,2.03062
4134.26511,2.03026
4133.23541,2.02644
4132.20570,2.02169
4131.17600,2.02086
4130.14629,2.02243
4129.11659,2.02114
4128.08688,2.01788
4127.05718,2.01730
4126.02747,2.01963
4124.99777,2.02315
4123.96806,2.02502
4122.93836,2.02517
4121.90865,2.02577
4120.87895,2.02753
4119.84925,2.03105
4118.81954,2.03636
4117.78984,2.04046
4116.76013,2.03980
4115.73043,2.03440
4114.70072,2.02905
4113.67102,2.02887
4112.64131,2.03086
4111.61161,2.03111
4110.58190,2.03048
4109.55220,2.02956
4108.52249,2.02720
4107.49279,2.02266
4106.46308,2.02288
4105.43338,2.02902
4104.40367,2.03179
4103.37397,2.03173
4102.34426,2.03049
4101.31456,2.02687
4100.28485,2.02615
4099.25515,2.03058
4098.22544,2.03535
4097.19574,2.03697
4096.16603,2.03643
4095.13633,2.03477
4094.10662,2.03331
4093.07692,2.03330
4092.04721,2.03562
4091.01751,2.03847
4089.98780,2.03783
4088.95810,2.03424
4087.92839,2.03366
4086.89869,2.03642
4085.86898,2.03571
4084.83928,2.03063
4083.80957,2.02589
4082.77987,2.02605
4081.75016,2.03198
4080.72046,2.03663
4079.69075,2.03559
4078.66105,2.03344
4077.63134,2.03301
4076.60164,2.03236
4075.57194,2.03095
4074.54223,2.02693
4073.51253,2.02091
4072.48282,2.01968
4071.45312,2.02626
4070.42341,2.03426
4069.39371,2.03512
4068.36400,2.03319
4067.33430,2.03570
4066.30459,2.03903
4065.27489,2.03714
4064.24518,2.03202
4063.21548,2.03127
4062.18577,2.03408
4061.15607,2.03468
4060.12636,2.03454
4059.09666,2.03470
4058.06695,2.03452
4057.03725,2.03608
4056.00754,2.03703
4054.97784,2.03791
4053.94813,2.04164
4052.91843,2.04368
4051.88872,2.04238
4050.85902,2.04111
4049.82931,2.03940
4048.79961,2.03723
4047.76990,2.03708
4046.74020,2.03780
4045.71049,2.03891
4044.68079,2.04240
4043.65108,2.04587
4042.62138,2.04490
4041.59167,2.04043
4040.56197,2.03613
4039.53226,2.03434
4038.50256,2.03669
4037.47285,2.03934
4036.44315,2.03770
4035.41344,2.03334
4034.38374,2.02676
4033.35403,2.02265
4032.32433,2.02637
4031.29463,2.03151
4030.26492,2.03283
4029.23522,2.03172
4028.20551,2.02958
4027.17581,2.02795
4026.14610,2.02925
4025.11640,2.03280
4024.08669,2.03332
4023.05699,2.03182
4022.02728,2.03234
4020.99758,2.03284
4019.96787,2.03063
4018.93817,2.03063
4017.90846,2.03581
4016.87876,2.03789
4015.84905,2.03598
4014.81935,2.03559
4013.78964,2.03491
4012.75994,2.03424
4011.73023,2.03205
4010.70053,2.02702
4009.67082,2.02542
4008.64112,2.02466
4007.61141,2.02259
4006.58171,2.02457
4005.55200,2.02815
4004.52230,2.03032
4003.49259,2.03155
4002.46289,2.03057
4001.43318,2.02911
4000.40348,2.02948
3999.37377,2.02968
3998.34407,2.02893
3997.31436,2.02908
3996.28466,2.03090
3995.25495,2.03233
3994.22525,2.03237
3993.19554,2.02943
3992.16584,2.02361
3991.13613,2.02285
3990.10643,2.02731
3989.07672,2.03085
3988.04702,2.03254
3987.01731,2.03110
3985.98761,2.02749
3984.95791,2.02650
3983.92820,2.02886
3982.89850,2.03088
3981.86879,2.03055
3980.83909,2.02834
3979.80938,2.02693
3978.77968,2.02865
3977.74997,2.03255
3976.72027,2.03448
3975.69056,2.03322
3974.66086,2.03097
3973.63115,2.02604
3972.60145,2.02052
3971.57174,2.02132
3970.54204,2.02515
3969.51233,2.02555
3968.48263,2.02489
3967.45292,2.02561
3966.42322,2.03094
3965.39351,2.03919
3964.36381,2.03879
3963.33410,2.03267
3962.30440,2.02944
3961.27469,2.02645
3960.24499,2.02408
3959.21528,2.02446
3958.18558,2.02413
3957.15587,2.02212
3956.12617,2.01917
3955.09646,2.01601
3954.06676,2.01664
3953.03705,2.02004
3952.00735,2.02346
3950.97764,2.03005
3949.94794,2.03695
3948.91823,2.03558
3947.88853,2.03057
3946.85882,2.02956
3945.82912,2.03135
3944.79941,2.03342
3943.76971,2.03098
3942.74000,2.02372
3941.71030,2.02063
3940.68060,2.02287
3939.65089,2.02472
3938.62119,2.02593
3937.59148,2.02592
3936.56178,2.02172
3935.53207,2.01993
3934.50237,2.02612
3933.47266,2.03691
3932.44296,2.04233
3931.41325,2.03535
3930.38355,2.02620
3929.35384,2.02251
3928.32414,2.02434
3927.29443,2.03142
3926.26473,2.03928
3925.23502,2.04157
3924.20532,2.03904
3923.17561,2.03560
3922.14591,2.03236
3921.11620,2.02882
3920.08650,2.02440
3919.05679,2.02343
3918.02709,2.02587
3916.99738,2.02502
3915.96768,2.02056
3914.93797,2.01602
3913.90827,2.01262
3912.87856,2.01261
3911.84886,2.01661
3910.81915,2.02051
3909.78945,2.01951
3908.75974,2.01770
3907.73004,2.02200
3906.70033,2.03248
3905.67063,2.04346
3904.64092,2.04341
3903.61122,2.03350
3902.58151,2.02706
3901.55181,2.02302
3900.52210,2.02340
3899.49240,2.02604
3898.46269,2.01795
3897.43299,2.00749
3896.40329,2.00823
3895.37358,2.01526
3894.34388,2.01731
3893.31417,2.01614
3892.28447,2.01924
3891.25476,2.02332
3890.22506,2.01760
3889.19535,2.01115
3888.16565,2.01307
3887.13594,2.02165
3886.10624,2.02729
3885.07653,2.02225
3884.04683,2.02047
3883.01712,2.02725
3881.98742,2.03660
3880.95771,2.03996
3879.92801,2.02902
3878.89830,2.01745
3877.86860,2.01127
3876.83889,2.00912
3875.80919,2.01438
3874.77948,2.02362
3873.74978,2.02506
3872.72007,2.02424
3871.69037,2.03101
3870.66066,2.03861
3869.63096,2.03329
3868.60125,2.01841
3867.57155,2.01219
3866.54184,2.01788
3865.51214,2.02715
3864.48243,2.02544
3863.45273,2.01854
3862.42302,2.01604
3861.39332,2.01468
3860.36361,2.01349
3859.33391,2.01590
3858.30420,2.02309
3857.27450,2.03079
3856.24479,2.03541
3855.21509,2.03848
3854.18538,2.03041
3853.15568,2.01008
3852.12598,2.00439
3851.09627,2.00837
3850.06657,2.00975
3849.03686,2.00812
3848.00716,2.00818
3846.97745,2.01033
3845.94775,2.01414
3844.91804,2.02178
3843.88834,2.02855
3842.85863,2.02784
3841.82893,2.03006
3840.79922,2.03660
3839.76952,2.03962
3838.73981,2.04302
3837.71011,2.04036
3836.68040,2.03020
3835.65070,2.02353
3834.62099,2.02015
3833.59129,2.02386
3832.56158,2.03076
3831.53188,2.02477
3830.50217,2.01195
3829.47247,2.01114
3828.44276,2.02205
3827.41306,2.03145
3826.38335,2.02735
3825.35365,2.01985
3824.32394,2.02040
3823.29424,2.02778
3822.26453,2.04166
3821.23483,2.05004
3820.20512,2.03197
3819.17542,2.02021
3818.14571,2.02032
3817.11601,2.02732
3816.08630,2.03719
3815.05660,2.03078
3814.02689,2.01829
3812.99719,2.01294
3811.96748,2.01536
3810.93778,2.02017
3809.90807,2.02555
3808.87837,2.03501
3807.84866,2.04565
3806.81896,2.04012
3805.78926,2.02514
3804.75955,2.02356
3803.72985,2.03438
3802.70014,2.05147
3801.67044,2.05694
3800.64073,2.03885
3799.61103,2.02667
3798.58132,2.02504
3797.55162,2.02895
3796.52191,2.02915
3795.49221,2.02147
3794.46250,2.01677
3793.43280,2.01754
3792.40309,2.02215
3791.37339,2.02816
3790.34368,2.02906
3789.31398,2.02743
3788.28427,2.02938
3787.25457,2.03093
3786.22486,2.03072
3785.19516,2.03043
3784.16545,2.02760
3783.13575,2.02270
3782.10604,2.02278
3781.07634,2.03321
3780.04663,2.04411
3779.01693,2.03859
3777.98722,2.02976
3776.95752,2.02994
3775.92781,2.03176
3774.89811,2.03071
3773.86840,2.02885
3772.83870,2.02787
3771.80899,2.03290
3770.77929,2.04205
3769.74958,2.03622
3768.71988,2.02346
3767.69017,2.02502
3766.66047,2.03418
3765.63076,2.03864
3764.60106,2.03685
3763.57135,2.03784
3762.54165,2.04172
3761.51195,2.04401
3760.48224,2.04367
3759.45254,2.03952
3758.42283,2.03701
3757.39313,2.03813
3756.36342,2.03711
3755.33372,2.03685
3754.30401,2.04363
3753.27431,2.05791
3752.24460,2.07242
3751.21490,2.07189
3750.18519,2.06129
3749.15549,2.05100
3748.12578,2.04492
3747.09608,2.04641
3746.06637,2.05885
3745.03667,2.07228
3744.00696,2.05632
3742.97726,2.04445
3741.94755,2.04459
3740.91785,2.04295
3739.88814,2.04038
3738.85844,2.04344
3737.82873,2.05092
3736.79903,2.06144
3735.76932,2.07297
3734.73962,2.06863
3733.70991,2.05576
3732.68021,2.05221
3731.65050,2.05617
3730.62080,2.05464
3729.59109,2.04889
3728.56139,2.05012
3727.53168,2.06277
3726.50198,2.07347
3725.47227,2.07072
3724.44257,2.06611
3723.41286,2.06685
3722.38316,2.06838
3721.35345,2.06470
3720.32375,2.06214
3719.29404,2.06237
3718.26434,2.06160
3717.23464,2.06207
3716.20493,2.06379
3715.17523,2.06847
3714.14552,2.08005
3713.11582,2.09451
3712.08611,2.09536
3711.05641,2.08232
3710.02670,2.07552
3708.99700,2.07544
3707.96729,2.07880
3706.93759,2.08330
3705.90788,2.08819
3704.87818,2.09392
3703.84847,2.10055
3702.81877,2.10834
3701.78906,2.11106
3700.75936,2.10580
3699.72965,2.10484
3698.69995,2.10848
3697.67024,2.11331
3696.64054,2.11886
3695.61083,2.12184
3694.58113,2.12389
3693.55142,2.12950
3692.52172,2.14059
3691.49201,2.15265
3690.46231,2.15526
3689.43260,2.15660
3688.40290,2.15474
3687.37319,2.14243
3686.34349,2.13515
3685.31378,2.13395
3684.28408,2.14067
3683.25437,2.15672
3682.22467,2.16801
3681.19496,2.17143
3680.16526,2.17761
3679.13555,2.18335
3678.10585,2.18747
3677.07614,2.19911
3676.04644,2.21230
3675.01673,2.21157
3673.98703,2.20074
3672.95733,2.19934
3671.92762,2.21354
3670.89792,2.23635
3669.86821,2.23898
3668.83851,2.22750
3667.80880,2.22213
3666.77910,2.22092
3665.74939,2.22076
3664.71969,2.22200
3663.68998,2.22441
3662.66028,2.22886
3661.63057,2.23836
3660.60087,2.24527
3659.57116,2.23977
3658.54146,2.23671
3657.51175,2.24899
3656.48205,2.26159
3655.45234,2.25579
3654.42264,2.25153
3653.39293,2.25759
3652.36323,2.27242
3651.33352,2.29507
3650.30382,2.30874
3649.27411,2.30502
3648.24441,2.29200
3647.21470,2.27560
3646.18500,2.26921
3645.15529,2.27095
3644.12559,2.27531
3643.09588,2.28088
3642.06618,2.28646
3641.03647,2.29133
3640.00677,2.29453
3638.97706,2.29429
3637.94736,2.29262
3636.91765,2.29119
3635.88795,2.29304
3634.85824,2.30183
3633.82854,2.30769
3632.79883,2.30325
3631.76913,2.30186
3630.73942,2.31871
3629.70972,2.35337
3628.68001,2.35059
3627.65031,2.31977
3626.62061,2.31378
3625.59090,2.31995
3624.56120,2.31782
3623.53149,2.30888
3622.50179,2.30905
3621.47208,2.31912
3620.44238,2.32527
3619.41267,2.32210
3618.38297,2.31693
3617.35326,2.31801
3616.32356,2.32297
3615.29385,2.32528
3614.26415,2.33060
3613.23444,2.34084
3612.20474,2.33714
3611.17503,2.33004
3610.14533,2.33729
3609.11562,2.34960
3608.08592,2.34862
3607.05621,2.33189
3606.02651,2.31609
3604.99680,2.31542
3603.96710,2.32709
3602.93739,2.33990
3601.90769,2.34757
3600.87798,2.34787
3599.84828,2.34076
3598.81857,2.33601
3597.78887,2.33174
3596.75916,2.32561
3595.72946,2.32737
3594.69975,2.33250
3593.67005,2.32912
3592.64034,2.32451
3591.61064,2.32694
3590.58093,2.33502
3589.55123,2.34421
3588.52152,2.35171
3587.49182,2.35147
3586.46211,2.33503
3585.43241,2.32294
3584.40270,2.32812
3583.37300,2.33581
3582.34330,2.33529
3581.31359,2.33214
3580.28389,2.32815
3579.25418,2.32572
3578.22448,2.32957
3577.19477,2.33422
3576.16507,2.33473
3575.13536,2.33211
3574.10566,2.33075
3573.07595,2.33206
3572.04625,2.32968
3571.01654,2.33095
3569.98684,2.34277
3568.95713,2.35078
3567.92743,2.34492
3566.89772,2.33358
3565.86802,2.32457
3564.83831,2.32238
3563.80861,2.32915
3562.77890,2.33913
3561.74920,2.34499
3560.71949,2.34310
3559.68979,2.33487
3558.66008,2.33256
3557.63038,2.33913
3556.60067,2.33812
3555.57097,2.32689
3554.54126,2.32363
3553.51156,2.33042
3552.48185,2.33334
3551.45215,2.33019
3550.42244,2.32566
3549.39274,2.32274
3548.36303,2.32656
3547.33333,2.33607
3546.30362,2.34350
3545.27392,2.34632
3544.24421,2.34470
3543.21451,2.33918
3542.18480,2.33483
3541.15510,2.33685
3540.12539,2.33785
3539.09569,2.33356
3538.06599,2.33777
3537.03628,2.35050
3536.00658,2.35205
3534.97687,2.34149
3533.94717,2.33356
3532.91746,2.33346
3531.88776,2.34189
3530.85805,2.35166
3529.82835,2.35142
3528.79864,2.34570
3527.76894,2.33875
3526.73923,2.33106
3525.70953,2.32648
3524.67982,2.32898
3523.65012,2.33779
3522.62041,2.33934
3521.59071,2.33132
3520.56100,2.32247
3519.53130,2.31665
3518.50159,2.31516
3517.47189,2.31586
3516.44218,2.31864
3515.41248,2.32662
3514.38277,2.33841
3513.35307,2.34526
3512.32336,2.34246
3511.29366,2.33480
3510.26395,2.32620
3509.23425,2.31586
3508.20454,2.31033
3507.17484,2.31595
3506.14513,2.32496
3505.11543,2.32923
3504.08572,2.32932
3503.05602,2.32784
3502.02631,2.32549
3500.99661,2.32442
3499.96690,2.32326
3498.93720,2.32167
3497.90749,2.32599
3496.87779,2.33658
3495.84808,2.34212
3494.81838,2.33863
3493.78868,2.33407
3492.75897,2.33275
3491.72927,2.33036
3490.69956,2.32673
3489.66986,2.33120
3488.64015,2.33993
3487.61045,2.34012
3486.58074,2.33159
3485.55104,2.32312
3484.52133,2.32132
3483.49163,2.32270
3482.46192,2.32426
3481.43222,2.33024
3480.40251,2.33652
3479.37281,2.33374
3478.34310,2.32762
3477.31340,2.32889
3476.28369,2.33422
3475.25399,2.33300
3474.22428,2.32547
3473.19458,2.32155
3472.16487,2.32464
3471.13517,2.32450
3470.10546,2.32113
3469.07576,2.32549
3468.04605,2.32832
3467.01635,2.32381
3465.98664,2.32253
3464.95694,2.32736
3463.92723,2.33325
3462.89753,2.33374
3461.86782,2.32846
3460.83812,2.32458
3459.80841,2.32337
3458.77871,2.32257
3457.74900,2.32373
3456.71930,2.32427
3455.68959,2.32178
3454.65989,2.32150
3453.63018,2.32496
3452.60048,2.32654
3451.57077,2.32276
3450.54107,2.31610
3449.51136,2.31430
3448.48166,2.32051
3447.45196,2.32452
3446.42225,2.31842
3445.39255,2.31228
3444.36284,2.31215
3443.33314,2.31249
3442.30343,2.31107
3441.27373,2.31081
3440.24402,2.31488
3439.21432,2.31732
3438.18461,2.31458
3437.15491,2.31580
3436.12520,2.32119
3435.09550,2.32327
3434.06579,2.31835
3433.03609,2.31158
3432.00638,2.30851
3430.97668,2.30799
3429.94697,2.31198
3428.91727,2.32007
3427.88756,2.32370
3426.85786,2.32247
3425.82815,2.32483
3424.79845,2.32557
3423.76874,2.31974
3422.73904,2.31626
3421.70933,2.31845
3420.67963,2.32066
3419.64992,2.31737
3418.62022,2.30994
3417.59051,2.30295
3416.56081,2.29989
3415.53110,2.30242
3414.50140,2.30997
3413.47169,2.31959
3412.44199,2.32200
3411.41228,2.31592
3410.38258,2.31449
3409.35287,2.32149
3408.32317,2.32667
3407.29346,2.32578
3406.26376,2.31980
3405.23405,2.31123
3404.20435,2.30679
3403.17465,2.30539
3402.14494,2.30053
3401.11524,2.29486
3400.08553,2.29447
3399.05583,2.29797
3398.02612,2.30449
3396.99642,2.31162
3395.96671,2.31196
3394.93701,2.30852
3393.90730,2.30686
3392.87760,2.30479
3391.84789,2.30369
3390.81819,2.30750
3389.78848,2.30976
3388.75878,2.30927
3387.72907,2.31041
3386.69937,2.31160
3385.66966,2.31375
3384.63996,2.31640
3383.61025,2.31623
3382.58055,2.31048
3381.55084,2.30531
3380.52114,2.30331
3379.49143,2.30115
3378.46173,2.30403
3377.43202,2.31088
3376.40232,2.31194
3375.37261,2.30983
3374.34291,2.31234
3373.31320,2.31000
3372.28350,2.30103
3371.25379,2.30005
3370.22409,2.31022
3369.19438,2.31872
3368.16468,2.31771
3367.13497,2.31715
3366.10527,2.31983
3365.07556,2.31811
3364.04586,2.31086
3363.01615,2.30608
3361.98645,2.30867
3360.95674,2.30964
3359.92704,2.30465
3358.89734,2.30236
3357.86763,2.30548
3356.83793,2.30782
3355.80822,2.30581
3354.77852,2.30369
3353.74881,2.30666
3352.71911,2.31216
3351.68940,2.31713
3350.65970,2.31685
3349.62999,2.30679
3348.60029,2.29750
3347.57058,2.29906
3346.54088,2.30531
3345.51117,2.30756
3344.48147,2.30647
3343.45176,2.30642
3342.42206,2.30937
3341.39235,2.30917
3340.36265,2.29986
3339.33294,2.29620
3338.30324,2.30655
3337.27353,2.31261
3336.24383,2.30949
3335.21412,2.31000
3334.18442,2.31029
3333.15471,2.30409
3332.12501,2.29850
3331.09530,2.29627
3330.06560,2.29447
3329.03589,2.29671
3328.00619,2.30042
3326.97648,2.29940
3325.94678,2.29864
3324.91707,2.30149
3323.88737,2.30313
3322.85766,2.30352
3321.82796,2.30297
3320.79825,2.29862
3319.76855,2.29383
3318.73884,2.29204
3317.70914,2.29264
3316.67943,2.29568
3315.64973,2.29952
3314.62003,2.30058
3313.59032,2.29955
3312.56062,2.29857
3311.53091,2.29759
3310.50121,2.29804
3309.47150,2.29959
3308.44180,2.29818
3307.41209,2.29288
3306.38239,2.28849
3305.35268,2.28979
3304.32298,2.29455
3303.29327,2.29547
3302.26357,2.29307
3301.23386,2.29410
3300.20416,2.29741
3299.17445,2.29864
3298.14475,2.29841
3297.11504,2.29706
3296.08534,2.29541
3295.05563,2.29572
3294.02593,2.29691
3292.99622,2.29843
3291.96652,2.29875
3290.93681,2.29621
3289.90711,2.29520
3288.87740,2.29772
3287.84770,2.29891
3286.81799,2.29745
3285.78829,2.29696
3284.75858,2.29682
3283.72888,2.29578
3282.69917,2.29683
3281.66947,2.29926
3280.63976,2.29874
3279.61006,2.29530
3278.58035,2.29112
3277.55065,2.28867
3276.52094,2.28942
3275.49124,2.29128
3274.46153,2.29459
3273.43183,2.29978
3272.40212,2.30454
3271.37242,2.30486
3270.34271,2.29805
3269.31301,2.29023
3268.28331,2.28728
3267.25360,2.29004
3266.22390,2.29328
3265.19419,2.29263
3264.16449,2.29151
3263.13478,2.28833
3262.10508,2.28396
3261.07537,2.28617
3260.04567,2.29356
3259.01596,2.29753
3257.98626,2.29472
3256.95655,2.28963
3255.92685,2.28812
3254.89714,2.29109
3253.86744,2.29183
3252.83773,2.28814
3251.80803,2.28731
3250.77832,2.29255
3249.74862,2.29893
3248.71891,2.30236
3247.68921,2.30261
3246.65950,2.30070
3245.62980,2.29755
3244.60009,2.29384
3243.57039,2.29277
3242.54068,2.29449
3241.51098,2.29639
3240.48127,2.29756
3239.45157,2.29724
3238.42186,2.29757
3237.39216,2.29802
3236.36245,2.29382
3235.33275,2.28703
3234.30304,2.28695
3233.27334,2.29289
3232.24363,2.29708
3231.21393,2.29611
3230.18422,2.29068
3229.15452,2.28795
3228.12481,2.29000
3227.09511,2.29303
3226.06540,2.29509
3225.03570,2.29412
3224.00600,2.28987
3222.97629,2.28575
3221.94659,2.28494
3220.91688,2.28729
3219.88718,2.29036
3218.85747,2.29189
3217.82777,2.29118
3216.79806,2.28877
3215.76836,2.28689
3214.73865,2.28581
3213.70895,2.28428
3212.67924,2.28706
3211.64954,2.29349
3210.61983,2.29263
3209.59013,2.28450
3208.56042,2.27855
3207.53072,2.28037
3206.50101,2.28860
3205.47131,2.29213
3204.44160,2.28773
3203.41190,2.28408
3202.38219,2.28547
3201.35249,2.29026
3200.32278,2.29381
3199.29308,2.29133
3198.26337,2.28513
3197.23367,2.28425
3196.20396,2.29001
3195.17426,2.29308
3194.14455,2.28913
3193.11485,2.28406
3192.08514,2.28522
3191.05544,2.29101
3190.02573,2.29165
3188.99603,2.28528
3187.96632,2.28149
3186.93662,2.28588
3185.90691,2.29120
3184.87721,2.29061
3183.84750,2.28878
3182.81780,2.29106
3181.78809,2.29360
3180.75839,2.29098
3179.72869,2.28657
3178.69898,2.28424
3177.66928,2.28459
3176.63957,2.28604
3175.60987,2.28451
3174.58016,2.28014
3173.55046,2.27695
3172.52075,2.27767
3171.49105,2.28114
3170.46134,2.28690
3169.43164,2.29372
3168.40193,2.29656
3167.37223,2.29405
3166.34252,2.29082
3165.31282,2.29011
3164.28311,2.29219
3163.25341,2.29462
3162.22370,2.29181
3161.19400,2.28463
3160.16429,2.27975
3159.13459,2.27821
3158.10488,2.27903
3157.07518,2.28267
3156.04547,2.28552
3155.01577,2.28330
3153.98606,2.27934
3152.95636,2.28041
3151.92665,2.28659
3150.89695,2.28980
3149.86724,2.28632
3148.83754,2.28356
3147.80783,2.28575
3146.77813,2.29005
3145.74842,2.29524
3144.71872,2.29792
3143.68901,2.29464
3142.65931,2.28798
3141.62960,2.28237
3140.59990,2.28125
3139.57019,2.28291
3138.54049,2.28398
3137.51078,2.28688
3136.48108,2.29081
3135.45138,2.29246
3134.42167,2.29232
3133.39197,2.28942
3132.36226,2.28625
3131.33256,2.28506
3130.30285,2.28440
3129.27315,2.28498
3128.24344,2.28721
3127.21374,2.28871
3126.18403,2.28702
3125.15433,2.28529
3124.12462,2.28866
3123.09492,2.29298
3122.06521,2.29250
3121.03551,2.28887
3120.00580,2.28526
3118.97610,2.28426
3117.94639,2.28486
3116.91669,2.28643
3115.88698,2.28927
3114.85728,2.28936
3113.82757,2.28584
3112.79787,2.28270
3111.76816,2.28219
3110.73846,2.28378
3109.70875,2.28716
3108.67905,2.28932
3107.64934,2.28658
3106.61964,2.28111
3105.58993,2.28015
3104.56023,2.28463
3103.53052,2.28555
3102.50082,2.28332
3101.47111,2.28587
3100.44141,2.28990
3099.41170,2.28918
3098.38200,2.28633
3097.35229,2.28695
3096.32259,2.29181
3095.29288,2.29531
3094.26318,2.29327
3093.23347,2.28675
3092.20377,2.28146
3091.17406,2.28128
3090.14436,2.28180
3089.11466,2.28223
3088.08495,2.28586
3087.05525,2.28957
3086.02554,2.29150
3084.99584,2.29309
3083.96613,2.29288
3082.93643,2.29040
3081.90672,2.28657
3080.87702,2.28145
3079.84731,2.27889
3078.81761,2.28213
3077.78790,2.28502
3076.75820,2.28544
3075.72849,2.28762
3074.69879,2.28798
3073.66908,2.28590
3072.63938,2.28343
3071.60967,2.28041
3070.57997,2.28152
3069.55026,2.28615
3068.52056,2.28917
3067.49085,2.28953
3066.46115,2.28721
3065.43144,2.28395
3064.40174,2.28451
3063.37203,2.28851
3062.34233,2.28957
3061.31262,2.28691
3060.28292,2.28469
3059.25321,2.28516
3058.22351,2.28795
3057.19380,2.28914
3056.16410,2.28711
3055.13439,2.28563
3054.10469,2.28649
3053.07498,2.28676
3052.04528,2.28557
3051.01557,2.28756
3049.98587,2.29299
3048.95616,2.29725
3047.92646,2.29756
3046.89675,2.29510
3045.86705,2.29424
3044.83735,2.29487
3043.80764,2.29526
3042.77794,2.29714
3041.74823,2.29970
3040.71853,2.29845
3039.68882,2.29335
3038.65912,2.29020
3037.62941,2.29168
3036.59971,2.29408
3035.57000,2.29419
3034.54030,2.29431
3033.51059,2.29600
3032.48089,2.29652
3031.45118,2.29554
3030.42148,2.29557
3029.39177,2.29497
3028.36207,2.29169
3027.33236,2.29140
3026.30266,2.29736
3025.27295,2.30201
3024.24325,2.30208
3023.21354,2.30044
3022.18384,2.29563
3021.15413,2.29284
3020.12443,2.29557
3019.09472,2.29826
3018.06502,2.29922
3017.03531,2.30071
3016.00561,2.30259
3014.97590,2.30329
3013.94620,2.30610
3012.91649,2.31036
3011.88679,2.30878
3010.85708,2.30481
3009.82738,2.30395
3008.79767,2.30317
3007.76797,2.30197
3006.73826,2.30110
3005.70856,2.30034
3004.67885,2.30236
3003.64915,2.30709
3002.61944,2.31022
3001.58974,2.31258
3000.56004,2.31720
2999.53033,2.31958
2998.50063,2.31573
2997.47092,2.31047
2996.44122,2.31021
2995.41151,2.31323
2994.38181,2.31481
2993.35210,2.31530
2992.32240,2.31374
2991.29269,2.31029
2990.26299,2.31047
2989.23328,2.31541
2988.20358,2.32089
2987.17387,2.32506
2986.14417,2.32760
2985.11446,2.32810
2984.08476,2.32667
2983.05505,2.32393
2982.02535,2.32378
2980.99564,2.32813
2979.96594,2.33310
2978.93623,2.33487
2977.90653,2.33463
2976.87682,2.33552
2975.84712,2.33780
2974.81741,2.33891
2973.78771,2.33735
2972.75800,2.33819
2971.72830,2.34442
2970.69859,2.35034
2969.66889,2.35162
2968.63918,2.35024
2967.60948,2.35059
2966.57977,2.35508
2965.55007,2.36063
2964.52036,2.36333
2963.49066,2.36330
2962.46095,2.36094
2961.43125,2.35799
2960.40154,2.35858
2959.37184,2.36210
2958.34213,2.36158
2957.31243,2.35705
2956.28273,2.35504
2955.25302,2.35348
2954.22332,2.34872
2953.19361,2.34676
2952.16391,2.34926
2951.13420,2.34928
2950.10450,2.34791
2949.07479,2.34881
2948.04509,2.35195
2947.01538,2.35686
2945.98568,2.35835
2944.95597,2.35783
2943.92627,2.36347
2942.89656,2.37158
2941.86686,2.37360
2940.83715,2.37129
2939.80745,2.36723
2938.77774,2.36369
2937.74804,2.36550
2936.71833,2.36997
2935.68863,2.37170
2934.65892,2.37168
2933.62922,2.37067
2932.59951,2.36903
2931.56981,2.36908
2930.54010,2.36709
2929.51040,2.36045
2928.48069,2.35283
2927.45099,2.34423
2926.42128,2.33407
2925.39158,2.32171
2924.36187,2.30572
2923.33217,2.29069
2922.30246,2.27870
2921.27276,2.26212
2920.24305,2.23628
2919.21335,2.20776
2918.18364,2.18158
2917.15394,2.15716
2916.12423,2.13608
2915.09453,2.11956
2914.06482,2.11105
2913.03512,2.11332
2912.00541,2.12009
2910.97571,2.12608
2909.94601,2.13269
2908.91630,2.13956
2907.88660,2.14461
2906.85689,2.14958
2905.82719,2.15563
2904.79748,2.16020
2903.76778,2.16243
2902.73807,2.16625
2901.70837,2.17387
2900.67866,2.17995
2899.64896,2.18155
2898.61925,2.18208
2897.58955,2.18168
2896.55984,2.18118
2895.53014,2.18464
2894.50043,2.18919
2893.47073,2.19036
2892.44102,2.19073
2891.41132,2.19299
2890.38161,2.19465
2889.35191,2.19398
2888.32220,2.19510
2887.29250,2.19983
2886.26279,2.20386
2885.23309,2.20518
2884.20338,2.20548
2883.17368,2.20541
2882.14397,2.20583
2881.11427,2.20732
2880.08456,2.20956
2879.05486,2.21237
2878.02515,2.21522
2876.99545,2.21761
2875.96574,2.21967
2874.93604,2.22239
2873.90633,2.22408
2872.87663,2.22418
2871.84692,2.22602
2870.81722,2.22926
2869.78751,2.23171
2868.75781,2.23390
2867.72810,2.23796
2866.69840,2.24252
2865.66870,2.24349
2864.63899,2.24219
2863.60929,2.24296
2862.57958,2.24647
2861.54988,2.25031
2860.52017,2.25302
2859.49047,2.25530
2858.46076,2.25738
2857.43106,2.25767
2856.40135,2.25606
2855.37165,2.25361
2854.34194,2.24763
2853.31224,2.23558
2852.28253,2.21863
2851.25283,2.19550
2850.22312,2.16666
2849.19342,2.14060
2848.16371,2.12377
2847.13401,2.11469
2846.10430,2.11001
2845.07460,2.10960
2844.04489,2.11428
2843.01519,2.12212
2841.98548,2.12920
2840.95578,2.13361
2839.92607,2.13756
2838.89637,2.14258
2837.86666,2.14777
2836.83696,2.15304
2835.80725,2.15679
2834.77755,2.15762
2833.74784,2.15881
2832.71814,2.16236
2831.68843,2.16583
2830.65873,2.16742
2829.62902,2.16746
2828.59932,2.16826
2827.56961,2.16960
2826.53991,2.16924
2825.51020,2.16896
2824.48050,2.17006
2823.45079,2.17111
2822.42109,2.17247
2821.39139,2.17591
2820.36168,2.17952
2819.33198,2.17983
2818.30227,2.17995
2817.27257,2.18247
2816.24286,2.18394
2815.21316,2.18380
2814.18345,2.18425
2813.15375,2.18337
2812.12404,2.18123
2811.09434,2.18191
2810.06463,2.18452
2809.03493,2.18534
2808.00522,2.18456
2806.97552,2.18460
2805.94581,2.18515
2804.91611,2.18502
2803.88640,2.18567
2802.85670,2.18676
2801.82699,2.18647
2800.79729,2.18556
2799.76758,2.18434
2798.73788,2.18248
2797.70817,2.18242
2796.67847,2.18562
2795.64876,2.18820
2794.61906,2.18680
2793.58935,2.18533
2792.55965,2.18656
2791.52994,2.18751
2790.50024,2.18666
2789.47053,2.18422
2788.44083,2.18301
2787.41112,2.18532
2786.38142,2.18888
2785.35171,2.19124
2784.32201,2.19177
2783.29230,2.19277
2782.26260,2.19460
2781.23289,2.19301
2780.20319,2.19016
2779.17348,2.19207
2778.14378,2.19522
2777.11408,2.19495
2776.08437,2.19341
2775.05467,2.19270
2774.02496,2.19211
2772.99526,2.19009
2771.96555,2.18893
2770.93585,2.19132
2769.90614,2.19305
2768.87644,2.19073
2767.84673,2.18872
2766.81703,2.19075
2765.78732,2.19442
2764.75762,2.19686
2763.72791,2.19735
2762.69821,2.19563
2761.66850,2.19308
2760.63880,2.19180
2759.60909,2.19106
2758.57939,2.19017
2757.54968,2.19200
2756.51998,2.19572
2755.49027,2.19644
2754.46057,2.19406
2753.43086,2.19236
2752.40116,2.19303
2751.37145,2.19447
2750.34175,2.19584
2749.31204,2.19791
2748.28234,2.19909
2747.25263,2.19748
2746.22293,2.19434
2745.19322,2.19098
2744.16352,2.18793
2743.13381,2.18560
2742.10411,2.18447
2741.07440,2.18590
2740.04470,2.18970
2739.01499,2.19375
2737.98529,2.19467
2736.95558,2.19201
2735.92588,2.19097
2734.89617,2.19245
2733.86647,2.19216
2732.83676,2.19012
2731.80706,2.18958
2730.77736,2.19057
2729.74765,2.19068
2728.71795,2.19037
2727.68824,2.19125
2726.65854,2.19081
2725.62883,2.18841
2724.59913,2.18674
2723.56942,2.18623
2722.53972,2.18707
2721.51001,2.18881
2720.48031,2.18987
2719.45060,2.19044
2718.42090,2.19084
2717.39119,2.18992
2716.36149,2.18818
2715.33178,2.18785
2714.30208,2.19033
2713.27237,2.19429
2712.24267,2.19500
2711.21296,2.19286
2710.18326,2.19249
2709.15355,2.19218
2708.12385,2.18986
2707.09414,2.18969
2706.06444,2.19211
2705.03473,2.19262
2704.00503,2.19093
2702.97532,2.19016
2701.94562,2.19003
2700.91591,2.18889
2699.88621,2.18801
2698.85650,2.18867
2697.82680,2.19098
2696.79709,2.19228
2695.76739,2.19119
2694.73768,2.18968
2693.70798,2.19001
2692.67827,2.19269
2691.64857,2.19447
2690.61886,2.19367
2689.58916,2.19129
2688.55945,2.18913
2687.52975,2.18804
2686.50005,2.18789
2685.47034,2.18907
2684.44064,2.18965
2683.41093,2.18744
2682.38123,2.18525
2681.35152,2.18641
2680.32182,2.18844
2679.29211,2.18847
2678.26241,2.18834
2677.23270,2.19002
2676.20300,2.19085
2675.17329,2.18935
2674.14359,2.18794
2673.11388,2.18871
2672.08418,2.19026
2671.05447,2.18980
2670.02477,2.18805
2668.99506,2.18681
2667.96536,2.18760
2666.93565,2.18863
2665.90595,2.18753
2664.87624,2.18553
2663.84654,2.18371
2662.81683,2.18278
2661.78713,2.18296
2660.75742,2.18392
2659.72772,2.18478
2658.69801,2.18464
2657.66831,2.18457
2656.63860,2.18658
2655.60890,2.18784
2654.57919,2.18634
2653.54949,2.18554
2652.51978,2.18619
2651.49008,2.18661
2650.46037,2.18621
2649.43067,2.18669
2648.40096,2.18834
2647.37126,2.18906
2646.34155,2.18955
2645.31185,2.19042
2644.28214,2.18953
2643.25244,2.18690
2642.22274,2.18491
2641.19303,2.18398
2640.16333,2.18390
2639.13362,2.18371
2638.10392,2.18189
2637.07421,2.18102
2636.04451,2.18321
2635.01480,2.18547
2633.98510,2.18625
2632.95539,2.18545
2631.92569,2.18324
2630.89598,2.18171
2629.86628,2.18132
2628.83657,2.18171
2627.80687,2.18208
2626.77716,2.18148
2625.74746,2.18019
2624.71775,2.17953
2623.68805,2.17968
2622.65834,2.17953
2621.62864,2.17985
2620.59893,2.18030
2619.56923,2.17943
2618.53952,2.17780
2617.50982,2.17768
2616.48011,2.17862
2615.45041,2.17769
2614.42070,2.17626
2613.39100,2.17647
2612.36129,2.17690
2611.33159,2.17576
2610.30188,2.17522
2609.27218,2.17804
2608.24247,2.18163
2607.21277,2.18229
2606.18306,2.18019
2605.15336,2.17805
2604.12365,2.17752
2603.09395,2.17757
2602.06424,2.17761
2601.03454,2.17763
2600.00483,2.17695
2598.97513,2.17569
2597.94543,2.17366
2596.91572,2.17186
2595.88602,2.17182
2594.85631,2.17345
2593.82661,2.17681
2592.79690,2.17986
2591.76720,2.17901
2590.73749,2.17444
2589.70779,2.17025
2588.67808,2.17011
2587.64838,2.17287
2586.61867,2.17416
2585.58897,2.17198
2584.55926,2.16873
2583.52956,2.16861
2582.49985,2.17132
2581.47015,2.17344
2580.44044,2.17383
2579.41074,2.17296
2578.38103,2.17250
2577.35133,2.17294
2576.32162,2.17376
2575.29192,2.17426
2574.26221,2.17249
2573.23251,2.16915
2572.20280,2.16772
2571.17310,2.16914
2570.14339,2.17040
2569.11369,2.17014
2568.08398,2.17000
2567.05428,2.17117
2566.02457,2.17311
2564.99487,2.17304
2563.96516,2.17053
2562.93546,2.16853
2561.90575,2.16895
2560.87605,2.17118
2559.84634,2.17160
2558.81664,2.16916
2557.78693,2.16829
2556.75723,2.17129
2555.72752,2.17291
2554.69782,2.16935
2553.66811,2.16631
2552.63841,2.16706
2551.60871,2.16807
2550.57900,2.16783
2549.54930,2.16766
2548.51959,2.16800
2547.48989,2.16812
2546.46018,2.16823
2545.43048,2.16829
2544.40077,2.16710
2543.37107,2.16556
2542.34136,2.16562
2541.31166,2.16780
2540.28195,2.16993
2539.25225,2.16941
2538.22254,2.16770
2537.19284,2.16683
2536.16313,2.16687
2535.13343,2.16769
2534.10372,2.16998
2533.07402,2.17209
2532.04431,2.17031
2531.01461,2.16720
2529.98490,2.16781
2528.95520,2.17045
2527.92549,2.16990
2526.89579,2.16718
2525.86608,2.16590
2524.83638,2.16527
2523.80667,2.16515
2522.77697,2.16587
2521.74726,2.16621
2520.71756,2.16701
2519.68785,2.16962
2518.65815,2.17133
2517.62844,2.17015
2516.59874,2.16891
2515.56903,2.16876
2514.53933,2.16705
2513.50962,2.16344
2512.47992,2.16205
2511.45021,2.16474
2510.42051,2.16820
2509.39080,2.16892
2508.36110,2.16747
2507.33140,2.16639
2506.30169,2.16635
2505.27199,2.16663
2504.24228,2.16595
2503.21258,2.16416
2502.18287,2.16310
2501.15317,2.16453
2500.12346,2.16671
2499.09376,2.16610
2498.06405,2.16470
2497.03435,2.16384
2496.00464,2.16142
2494.97494,2.15904
2493.94523,2.15771
2492.91553,2.15623
2491.88582,2.15478
2490.85612,2.15457
2489.82641,2.15651
2488.79671,2.15944
2487.76700,2.16154
2486.73730,2.16141
2485.70759,2.15879
2484.67789,2.15671
2483.64818,2.15683
2482.61848,2.15732
2481.58877,2.15707
2480.55907,2.15480
2479.52936,2.15225
2478.49966,2.15346
2477.46995,2.15498
2476.44025,2.15280
2475.41054,2.15139
2474.38084,2.15310
2473.35113,2.15419
2472.32143,2.15403
2471.29172,2.15448
2470.26202,2.15481
2469.23231,2.15441
2468.20261,2.15425
2467.17290,2.15462
2466.14320,2.15566
2465.11349,2.15739
2464.08379,2.15798
2463.05409,2.15606
2462.02438,2.15324
2460.99468,2.15107
2459.96497,2.15021
2458.93527,2.15152
2457.90556,2.15234
2456.87586,2.15033
2455.84615,2.14875
2454.81645,2.14866
2453.78674,2.14779
2452.75704,2.14650
2451.72733,2.14660
2450.69763,2.14825
2449.66792,2.14999
2448.63822,2.15021
2447.60851,2.14882
2446.57881,2.14792
2445.54910,2.14879
2444.51940,2.14922
2443.48969,2.14766
2442.45999,2.14735
2441.43028,2.14974
2440.40058,2.15081
2439.37087,2.15028
2438.34117,2.14980
2437.31146,2.14894
2436.28176,2.14847
2435.25205,2.14777
2434.22235,2.14699
2433.19264,2.14682
2432.16294,2.14580
2431.13323,2.14513
2430.10353,2.14644
2429.07382,2.14715
2428.04412,2.14518
2427.01441,2.14219
2425.98471,2.14178
2424.95500,2.14403
2423.92530,2.14485
2422.89559,2.14397
2421.86589,2.14384
2420.83618,2.14497
2419.80648,2.14584
2418.77678,2.14552
2417.74707,2.14455
2416.71737,2.14370
2415.68766,2.14455
2414.65796,2.14657
2413.62825,2.14762
2412.59855,2.14692
2411.56884,2.14427
2410.53914,2.14226
2409.50943,2.14319
2408.47973,2.14456
2407.45002,2.14445
2406.42032,2.14376
2405.39061,2.14241
2404.36091,2.14113
2403.33120,2.14126
2402.30150,2.14137
2401.27179,2.14081
2400.24209,2.14220
2399.21238,2.14427
2398.18268,2.14349
2397.15297,2.14145
2396.12327,2.14093
2395.09356,2.14215
2394.06386,2.14328
2393.03415,2.14309
2392.00445,2.14245
2390.97474,2.14186
2389.94504,2.14147
2388.91533,2.14209
2387.88563,2.14274
2386.85592,2.14171
2385.82622,2.13969
2384.79651,2.13855
2383.76681,2.13945
2382.73710,2.14097
2381.70740,2.14156
2380.67769,2.14182
2379.64799,2.14178
2378.61828,2.14165
2377.58858,2.14266
2376.55887,2.14360
2375.52917,2.14206
2374.49946,2.13864
2373.46976,2.13612
2372.44006,2.13804
2371.41035,2.14437
2370.38065,2.15102
2369.35094,2.15298
2368.32124,2.14927
2367.29153,2.14575
2366.26183,2.14364
2365.23212,2.14143
2364.20242,2.14233
2363.17271,2.14517
2362.14301,2.14526
2361.11330,2.14297
2360.08360,2.14094
2359.05389,2.14103
2358.02419,2.14187
2356.99448,2.14130
2355.96478,2.14171
2354.93507,2.14487
2353.90537,2.14846
2352.87566,2.15077
2351.84596,2.14899
2350.81625,2.14266
2349.78655,2.13893
2348.75684,2.13961
2347.72714,2.14143
2346.69743,2.14334
2345.66773,2.14374
2344.63802,2.14074
2343.60832,2.13690
2342.57861,2.13680
2341.54891,2.13897
2340.51920,2.13833
2339.48950,2.13695
2338.45979,2.14009
2337.43009,2.14494
2336.40038,2.14519
2335.37068,2.14277
2334.34097,2.14375
2333.31127,2.14662
2332.28156,2.14834
2331.25186,2.14955
2330.22215,2.14826
2329.19245,2.14353
2328.16275,2.13789
2327.13304,2.13515
2326.10334,2.13591
2325.07363,2.13718
2324.04393,2.13686
2323.01422,2.13496
2321.98452,2.13327
2320.95481,2.13321
2319.92511,2.13393
2318.89540,2.13454
2317.86570,2.13572
2316.83599,2.13601
2315.80629,2.13223
2314.77658,2.12741
2313.74688,2.12632
2312.71717,2.12656
2311.68747,2.12657
2310.65776,2.12743
2309.62806,2.12804
2308.59835,2.13030
2307.56865,2.13483
2306.53894,2.13635
2305.50924,2.13333
2304.47953,2.13100
2303.44983,2.13092
2302.42012,2.13054
2301.39042,2.12905
2300.36071,2.12702
2299.33101,2.12624
2298.30130,2.12696
2297.27160,2.12748
2296.24189,2.12756
2295.21219,2.12758
2294.18248,2.12736
2293.15278,2.12699
2292.12307,2.12574
2291.09337,2.12417
2290.06366,2.12373
2289.03396,2.12326
2288.00425,2.12219
2286.97455,2.12206
2285.94484,2.12282
2284.91514,2.12289
2283.88544,2.12241
2282.85573,2.12260
2281.82603,2.12298
2280.79632,2.12266
2279.76662,2.12117
2278.73691,2.11909
2277.70721,2.11823
2276.67750,2.11949
2275.64780,2.12247
2274.61809,2.12448
2273.58839,2.12350
2272.55868,2.12186
2271.52898,2.12178
2270.49927,2.12161
2269.46957,2.11909
2268.43986,2.11653
2267.41016,2.11770
2266.38045,2.12081
2265.35075,2.12168
2264.32104,2.12090
2263.29134,2.12031
2262.26163,2.11996
2261.23193,2.11989
2260.20222,2.11933
2259.17252,2.11685
2258.14281,2.11541
2257.11311,2.11785
2256.08340,2.12038
2255.05370,2.12055
2254.02399,2.11903
2252.99429,2.11819
2251.96458,2.11944
2250.93488,2.12002
2249.90517,2.11935
2248.87547,2.11881
2247.84576,2.11924
2246.81606,2.12123
2245.78635,2.12320
2244.75665,2.12348
2243.72694,2.12276
2242.69724,2.12141
2241.66753,2.11946
2240.63783,2.11795
2239.60813,2.11711
2238.57842,2.11591
2237.54872,2.11470
2236.51901,2.11543
2235.48931,2.11728
2234.45960,2.11801
2233.42990,2.11827
2232.40019,2.11902
2231.37049,2.11933
2230.34078,2.11940
2229.31108,2.12069
2228.28137,2.12206
2227.25167,2.12093
2226.22196,2.11777
2225.19226,2.11618
2224.16255,2.11748
2223.13285,2.11884
2222.10314,2.11815
2221.07344,2.11708
2220.04373,2.11710
2219.01403,2.11788
2217.98432,2.11951
2216.95462,2.12096
2215.92491,2.12174
2214.89521,2.12257
2213.86550,2.12180
2212.83580,2.11901
2211.80609,2.11821
2210.77639,2.12028
2209.74668,2.12133
2208.71698,2.12036
2207.68727,2.11901
2206.65757,2.11868
2205.62786,2.11967
2204.59816,2.11952
2203.56845,2.11816
2202.53875,2.11912
2201.50904,2.12182
2200.47934,2.12213
2199.44963,2.11987
2198.41993,2.11864
2197.39022,2.11896
2196.36052,2.11858
2195.33081,2.11697
2194.30111,2.11606
2193.27141,2.11678
2192.24170,2.11708
2191.21200,2.11826
2190.18229,2.12198
2189.15259,2.12364
2188.12288,2.12113
2187.09318,2.11865
2186.06347,2.11844
2185.03377,2.11880
2184.00406,2.11849
2182.97436,2.11848
2181.94465,2.11931
2180.91495,2.11866
2179.88524,2.11639
2178.85554,2.11568
2177.82583,2.11650
2176.79613,2.11735
2175.76642,2.11825
2174.73672,2.11816
2173.70701,2.11713
2172.67731,2.11779
2171.64760,2.11997
2170.61790,2.12052
2169.58819,2.11955
2168.55849,2.12012
2167.52878,2.12165
2166.49908,2.12053
2165.46937,2.11670
2164.43967,2.11407
2163.40996,2.11452
2162.38026,2.11669
2161.35055,2.11903
2160.32085,2.12009
2159.29114,2.12035
2158.26144,2.12040
2157.23173,2.12039
2156.20203,2.12101
2155.17232,2.12106
2154.14262,2.12030
2153.11291,2.11907
2152.08321,2.11810
2151.05350,2.11931
2150.02380,2.12198
2148.99410,2.12354
2147.96439,2.12281
2146.93469,2.12150
2145.90498,2.12113
2144.87528,2.12113
2143.84557,2.12109
2142.81587,2.12069
2141.78616,2.11998
2140.75646,2.11946
2139.72675,2.11966
2138.69705,2.12056
2137.66734,2.12041
2136.63764,2.11867
2135.60793,2.11732
2134.57823,2.11720
2133.54852,2.11820
2132.51882,2.12029
2131.48911,2.12252
2130.45941,2.12351
2129.42970,2.12270
2128.40000,2.12064
2127.37029,2.11838
2126.34059,2.11772
2125.31088,2.11837
2124.28118,2.11788
2123.25147,2.11681
2122.22177,2.11656
2121.19206,2.11699
2120.16236,2.11760
2119.13265,2.11725
2118.10295,2.11569
2117.07324,2.11471
2116.04354,2.11519
2115.01383,2.11558
2113.98413,2.11567
2112.95442,2.11557
2111.92472,2.11397
2110.89501,2.11205
2109.86531,2.11170
2108.83560,2.11340
2107.80590,2.11633
2106.77619,2.11721
2105.74649,2.11645
2104.71679,2.11756
2103.68708,2.11862
2102.65738,2.11787
2101.62767,2.11703
2100.59797,2.11599
2099.56826,2.11548
2098.53856,2.11665
2097.50885,2.11777
2096.47915,2.11749
2095.44944,2.11693
2094.41974,2.11677
2093.39003,2.11689
2092.36033,2.11767
2091.33062,2.11779
2090.30092,2.11656
2089.27121,2.11636
2088.24151,2.11736
2087.21180,2.11675
2086.18210,2.11531
2085.15239,2.11542
2084.12269,2.11616
2083.09298,2.11589
2082.06328,2.11548
2081.03357,2.11626
2080.00387,2.11713
2078.97416,2.11744
2077.94446,2.11775
2076.91475,2.11801
2075.88505,2.11758
2074.85534,2.11576
2073.82564,2.11465
2072.79593,2.11611
2071.76623,2.11708
2070.73652,2.11581
2069.70682,2.11484
2068.67711,2.11469
2067.64741,2.11479
2066.61770,2.11579
2065.58800,2.11710
2064.55829,2.11721
2063.52859,2.11628
2062.49888,2.11545
2061.46918,2.11485
2060.43948,2.11467
2059.40977,2.11462
2058.38007,2.11376
2057.35036,2.11408
2056.32066,2.11611
2055.29095,2.11604
2054.26125,2.11414
2053.23154,2.11354
2052.20184,2.11443
2051.17213,2.11561
2050.14243,2.11547
2049.11272,2.11396
2048.08302,2.11344
2047.05331,2.11462
2046.02361,2.11528
2044.99390,2.11305
2043.96420,2.10957
2042.93449,2.10855
2041.90479,2.10876
2040.87508,2.10830
2039.84538,2.10840
2038.81567,2.10870
2037.78597,2.10832
2036.75626,2.10853
2035.72656,2.10962
2034.69685,2.10992
2033.66715,2.11017
2032.63744,2.11052
2031.60774,2.10819
2030.57803,2.10429
2029.54833,2.10351
2028.51862,2.10478
2027.48892,2.10471
2026.45921,2.10485
2025.42951,2.10521
2024.39980,2.10551
2023.37010,2.10647
2022.34039,2.10520
2021.31069,2.10264
2020.28098,2.10281
2019.25128,2.10372
2018.22157,2.10361
2017.19187,2.10477
2016.16216,2.10674
2015.13246,2.10640
2014.10276,2.10458
2013.07305,2.10386
2012.04335,2.10315
2011.01364,2.10181
2009.98394,2.10022
2008.95423,2.09856
2007.92453,2.09835
2006.89482,2.09968
2005.86512,2.10128
2004.83541,2.10218
2003.80571,2.10240
2002.77600,2.10205
2001.74630,2.10103
2000.71659,2.10036
1999.68689,2.10099
1998.65718,2.10110
1997.62748,2.09945
1996.59777,2.09807
1995.56807,2.09766
1994.53836,2.09781
1993.50866,2.10039
1992.47895,2.10493
1991.44925,2.10623
1990.41954,2.10496
1989.38984,2.10531
1988.36013,2.10564
1987.33043,2.10363
1986.30072,2.10144
1985.27102,2.10087
1984.24131,2.10025
1983.21161,2.09863
1982.18190,2.09664
1981.15220,2.09514
1980.12249,2.09458
1979.09279,2.09563
1978.06308,2.09842
1977.03338,2.10006
1976.00367,2.09932
1974.97397,2.09872
1973.94426,2.09947
1972.91456,2.10061
1971.88485,2.10050
1970.85515,2.09964
1969.82545,2.09983
1968.79574,2.10055
1967.76604,2.10070
1966.73633,2.10041
1965.70663,2.10012
1964.67692,2.09929
1963.64722,2.09780
1962.61751,2.09754
1961.58781,2.09879
1960.55810,2.09987
1959.52840,2.09995
1958.49869,2.09876
1957.46899,2.09726
1956.43928,2.09634
1955.40958,2.09580
1954.37987,2.09589
1953.35017,2.09638
1952.32046,2.09649
1951.29076,2.09657
1950.26105,2.09631
1949.23135,2.09491
1948.20164,2.09425
1947.17194,2.09562
1946.14223,2.09684
1945.11253,2.09672
1944.08282,2.09662
1943.05312,2.09709
1942.02341,2.09742
1940.99371,2.09750
1939.96400,2.09772
1938.93430,2.09741
1937.90459,2.09629
1936.87489,2.09598
1935.84518,2.09663
1934.81548,2.09678
1933.78577,2.09722
1932.75607,2.09855
1931.72636,2.09873
1930.69666,2.09664
1929.66695,2.09393
1928.63725,2.09239
1927.60754,2.09174
1926.57784,2.09220
1925.54814,2.09489
1924.51843,2.09844
1923.48873,2.10046
1922.45902,2.09871
1921.42932,2.09511
1920.39961,2.09428
1919.36991,2.09584
1918.34020,2.09628
1917.31050,2.09359
1916.28079,2.09115
1915.25109,2.09208
1914.22138,2.09485
1913.19168,2.09689
1912.16197,2.09821
1911.13227,2.09918
1910.10256,2.09882
1909.07286,2.09674
1908.04315,2.09515
1907.01345,2.09529
1905.98374,2.09540
1904.95404,2.09483
1903.92433,2.09385
1902.89463,2.09283
1901.86492,2.09292
1900.83522,2.09394
1899.80551,2.09432
1898.77581,2.09405
1897.74610,2.09400
1896.71640,2.09434
1895.68669,2.09527
1894.65699,2.09542
1893.62728,2.09509
1892.59758,2.09623
1891.56787,2.09795
1890.53817,2.09891
1889.50846,2.09793
1888.47876,2.09532
1887.44905,2.09344
1886.41935,2.09290
1885.38964,2.09350
1884.35994,2.09394
1883.33023,2.09297
1882.30053,2.09168
1881.27083,2.09135
1880.24112,2.09148
1879.21142,2.09139
1878.18171,2.09245
1877.15201,2.09472
1876.12230,2.09603
1875.09260,2.09602
1874.06289,2.09479
1873.03319,2.09294
1872.00348,2.09293
1870.97378,2.09578
1869.94407,2.09940
1868.91437,2.10037
1867.88466,2.09805
1866.85496,2.09537
1865.82525,2.09435
1864.79555,2.09412
1863.76584,2.09409
1862.73614,2.09509
1861.70643,2.09627
1860.67673,2.09740
1859.64702,2.09864
1858.61732,2.09870
1857.58761,2.09793
1856.55791,2.09709
1855.52820,2.09586
1854.49850,2.09508
1853.46879,2.09565
1852.43909,2.09674
1851.40938,2.09698
1850.37968,2.09712
1849.34997,2.09837
1848.32027,2.09981
1847.29056,2.10044
1846.26086,2.10080
1845.23115,2.10100
1844.20145,2.09907
1843.17174,2.09670
1842.14204,2.09751
1841.11233,2.09863
1840.08263,2.09776
1839.05292,2.09676
1838.02322,2.09706
1836.99351,2.09794
1835.96381,2.09886
1834.93411,2.09972
1833.90440,2.10068
1832.87470,2.10127
1831.84499,2.10171
1830.81529,2.10443
1829.78558,2.10811
1828.75588,2.10739
1827.72617,2.10592
1826.69647,2.10741
1825.66676,2.10904
1824.63706,2.10679
1823.60735,2.10474
1822.57765,2.10483
1821.54794,2.10482
1820.51824,2.10464
1819.48853,2.10435
1818.45883,2.10345
1817.42912,2.10237
1816.39942,2.10291
1815.36971,2.10536
1814.34001,2.10746
1813.31030,2.10859
1812.28060,2.10910
1811.25089,2.10984
1810.22119,2.11184
1809.19148,2.11357
1808.16178,2.11416
1807.13207,2.11408
1806.10237,2.11458
1805.07266,2.11533
1804.04296,2.11596
1803.01325,2.11767
1801.98355,2.12039
1800.95384,2.12473
1799.92414,2.12845
1798.89443,2.12769
1797.86473,2.12693
1796.83502,2.12829
1795.80532,2.12815
1794.77561,2.12698
1793.74591,2.12863
1792.71620,2.13131
1791.68650,2.13110
1790.65680,2.13025
1789.62709,2.12795
1788.59739,2.12416
1787.56768,2.12187
1786.53798,2.12254
1785.50827,2.12552
1784.47857,2.12790
1783.44886,2.12806
1782.41916,2.12941
1781.38945,2.13284
1780.35975,2.13377
1779.33004,2.13127
1778.30034,2.12960
1777.27063,2.13188
1776.24093,2.13702
1775.21122,2.13869
1774.18152,2.13729
1773.15181,2.13899
1772.12211,2.14243
1771.09240,2.14041
1770.06270,2.13857
1769.03299,2.13932
1768.00329,2.13810
1766.97358,2.13493
1765.94388,2.13335
1764.91417,2.13308
1763.88447,2.13465
1762.85476,2.13815
1761.82506,2.14037
1760.79535,2.13923
1759.76565,2.13896
1758.73594,2.14000
1757.70624,2.14017
1756.67653,2.13847
1755.64683,2.13786
1754.61712,2.14087
1753.58742,2.14556
1752.55771,2.14931
1751.52801,2.14902
1750.49830,2.14618
1749.46860,2.14732
1748.43889,2.14838
1747.40919,2.14697
1746.37949,2.14642
1745.34978,2.14789
1744.32008,2.15067
1743.29037,2.14958
1742.26067,2.14577
1741.23096,2.14785
1740.20126,2.15223
1739.17155,2.14820
1738.14185,2.14167
1737.11214,2.13945
1736.08244,2.14153
1735.05273,2.14648
1734.02303,2.14420
1732.99332,2.13483
1731.96362,2.13275
1730.93391,2.13370
1729.90421,2.13138
1728.87450,2.12529
1727.84480,2.12221
1726.81509,2.12149
1725.78539,2.12079
1724.75568,2.12204
1723.72598,2.12465
1722.69627,2.12409
1721.66657,2.12066
1720.63686,2.11945
1719.60716,2.12284
1718.57745,2.12853
1717.54775,2.12783
1716.51804,2.12331
1715.48834,2.12173
1714.45863,2.11843
1713.42893,2.11286
1712.39922,2.10788
1711.36952,2.10442
1710.33981,2.10182
1709.31011,2.09906
1708.28040,2.09803
1707.25070,2.09832
1706.22099,2.09747
1705.19129,2.09456
1704.16158,2.08977
1703.13188,2.08737
1702.10218,2.08897
1701.07247,2.09231
1700.04277,2.09219
1699.01306,2.09041
1697.98336,2.09325
1696.95365,2.09619
1695.92395,2.08880
1694.89424,2.07803
1693.86454,2.07735
1692.83483,2.07753
1691.80513,2.07650
1690.77542,2.07866
1689.74572,2.08182
1688.71601,2.08016
1687.68631,2.07749
1686.65660,2.07898
1685.62690,2.08504
1684.59719,2.09330
1683.56749,2.08774
1682.53778,2.07928
1681.50808,2.07825
1680.47837,2.08018
1679.44867,2.08035
1678.41896,2.07952
1677.38926,2.07964
1676.35955,2.08136
1675.32985,2.08235
1674.30014,2.07951
1673.27044,2.07865
1672.24073,2.08020
1671.21103,2.08270
1670.18132,2.08570
1669.15162,2.08510
1668.12191,2.08075
1667.09221,2.07985
1666.06250,2.08015
1665.03280,2.07976
1664.00309,2.08095
1662.97339,2.08268
1661.94368,2.08120
1660.91398,2.07958
1659.88427,2.07986
1658.85457,2.08020
1657.82486,2.07891
1656.79516,2.07703
1655.76546,2.07851
1654.73575,2.08680
1653.70605,2.10424
1652.67634,2.10190
1651.64664,2.08332
1650.61693,2.07832
1649.58723,2.08026
1648.55752,2.08538
1647.52782,2.08951
1646.49811,2.08803
1645.46841,2.08184
1644.43870,2.07780
1643.40900,2.07633
1642.37929,2.07496
1641.34959,2.07464
1640.31988,2.07599
1639.29018,2.07794
1638.26047,2.08123
1637.23077,2.08547
1636.20106,2.08962
1635.17136,2.08634
1634.14165,2.07790
1633.11195,2.07559
1632.08224,2.07571
1631.05254,2.07520
1630.02283,2.07450
1628.99313,2.07508
1627.96342,2.07638
1626.93372,2.07591
1625.90401,2.07590
1624.87431,2.07880
1623.84460,2.08236
1622.81490,2.07997
1621.78519,2.07547
1620.75549,2.07429
1619.72578,2.07492
1618.69608,2.07728
1617.66637,2.08262
1616.63667,2.08324
1615.60696,2.07371
1614.57726,2.06937
1613.54755,2.07019
1612.51785,2.07120
1611.48815,2.07135
1610.45844,2.07224
1609.42874,2.07208
1608.39903,2.07051
1607.36933,2.06987
1606.33962,2.06996
1605.30992,2.07048
1604.28021,2.07055
1603.25051,2.07051
1602.22080,2.07154
1601.19110,2.07131
1600.16139,2.07018
1599.13169,2.07068
1598.10198,2.07139
1597.07228,2.07072
1596.04257,2.06994
1595.01287,2.07041
1593.98316,2.07115
1592.95346,2.07149
1591.92375,2.07155
1590.89405,2.07027
1589.86434,2.06851
1588.83464,2.06781
1587.80493,2.06773
1586.77523,2.06725
1585.74552,2.06641
1584.71582,2.06720
1583.68611,2.06929
1582.65641,2.06950
1581.62670,2.06871
1580.59700,2.06985
1579.56729,2.07192
1578.53759,2.07406
1577.50788,2.07795
1576.47818,2.08206
1575.44847,2.07892
1574.41877,2.07400
1573.38906,2.07163
1572.35936,2.07082
1571.32965,2.07204
1570.29995,2.07625
1569.27024,2.07849
1568.24054,2.07536
1567.21084,2.07448
1566.18113,2.07608
1565.15143,2.07548
1564.12172,2.07067
1563.09202,2.06833
1562.06231,2.07188
1561.03261,2.08064
1560.00290,2.09648
1558.97320,2.11444
1557.94349,2.09876
1556.91379,2.08224
1555.88408,2.07817
1554.85438,2.07712
1553.82467,2.07256
1552.79497,2.06818
1551.76526,2.06745
1550.73556,2.06977
1549.70585,2.07002
1548.67615,2.06608
1547.64644,2.06474
1546.61674,2.06796
1545.58703,2.07351
1544.55733,2.07535
1543.52762,2.07559
1542.49792,2.07722
1541.46821,2.07511
1540.43851,2.07494
1539.40880,2.07578
1538.37910,2.06723
1537.34939,2.06225
1536.31969,2.06162
1535.28998,2.06437
1534.26028,2.06974
1533.23057,2.07192
1532.20087,2.06992
1531.17116,2.06952
1530.14146,2.07146
1529.11175,2.07654
1528.08205,2.08205
1527.05234,2.08412
1526.02264,2.08505
1524.99293,2.08305
1523.96323,2.08010
1522.93353,2.08339
1521.90382,2.09273
1520.87412,2.09211
1519.84441,2.08306
1518.81471,2.08327
1517.78500,2.09142
1516.75530,2.09676
1515.72559,2.09139
1514.69589,2.08607
1513.66618,2.08516
1512.63648,2.08754
1511.60677,2.09029
1510.57707,2.09355
1509.54736,2.09810
1508.51766,2.10455
1507.48795,2.11428
1506.45825,2.11286
1505.42854,2.09696
1504.39884,2.08917
1503.36913,2.08676
1502.33943,2.08721
1501.30972,2.08899
1500.28002,2.09111
1499.25031,2.09172
1498.22061,2.09088
1497.19090,2.09270
1496.16120,2.09243
1495.13149,2.08794
1494.10179,2.08650
1493.07208,2.08918
1492.04238,2.09570
1491.01267,2.10292
1489.98297,2.10444
1488.95326,2.10322
1487.92356,2.10444
1486.89385,2.10332
1485.86415,2.09970
1484.83444,2.09947
1483.80474,2.10279
1482.77503,2.10662
1481.74533,2.10892
1480.71562,2.10866
1479.68592,2.10817
1478.65621,2.11091
1477.62651,2.11766
1476.59681,2.12648
1475.56710,2.13345
1474.53740,2.13974
1473.50769,2.14662
1472.47799,2.14339
1471.44828,2.12719
1470.41858,2.11359
1469.38887,2.10343
1468.35917,2.09330
1467.32946,2.08342
1466.29976,2.07682
1465.27005,2.07255
1464.24035,2.06601
1463.21064,2.06015
1462.18094,2.05680
1461.15123,2.05566
1460.12153,2.05883
1459.09182,2.06761
1458.06212,2.07942
1457.03241,2.08340
1456.00271,2.07037
1454.97300,2.05850
1453.94330,2.05388
1452.91359,2.05294
1451.88389,2.05225
1450.85418,2.05082
1449.82448,2.05104
1448.79477,2.05364
1447.76507,2.05396
1446.73536,2.05049
1445.70566,2.04825
1444.67595,2.04651
1443.64625,2.04392
1442.61654,2.04113
1441.58684,2.03872
1440.55713,2.03793
1439.52743,2.03939
1438.49772,2.04348
1437.46802,2.04915
1436.43831,2.04840
1435.40861,2.04254
1434.37890,2.04162
1433.34920,2.04253
1432.31950,2.04333
1431.28979,2.04583
1430.26009,2.04896
1429.23038,2.04942
1428.20068,2.04807
1427.17097,2.04694
1426.14127,2.04715
1425.11156,2.04988
1424.08186,2.05257
1423.05215,2.05024
1422.02245,2.04759
1420.99274,2.04931
1419.96304,2.05339
1418.93333,2.05561
1417.90363,2.05410
1416.87392,2.05114
1415.84422,2.04869
1414.81451,2.04845
1413.78481,2.05021
1412.75510,2.05207
1411.72540,2.05182
1410.69569,2.05045
1409.66599,2.05047
1408.63628,2.05132
1407.60658,2.05175
1406.57687,2.05237
1405.54717,2.05348
1404.51746,2.05240
1403.48776,2.05029
1402.45805,2.05053
1401.42835,2.05101
1400.39864,2.05095
1399.36894,2.05148
1398.33923,2.05040
1397.30953,2.04909
1396.27982,2.05116
1395.25012,2.05504
1394.22041,2.05532
1393.19071,2.05313
1392.16100,2.05158
1391.13130,2.04960
1390.10159,2.04821
1389.07189,2.05001
1388.04219,2.05391
1387.01248,2.05500
1385.98278,2.05310
1384.95307,2.05156
1383.92337,2.05007
1382.89366,2.04870
1381.86396,2.04797
1380.83425,2.04813
1379.80455,2.04857
1378.77484,2.04799
1377.74514,2.04625
1376.71543,2.04465
1375.68573,2.04441
1374.65602,2.04421
1373.62632,2.04126
1372.59661,2.03784
1371.56691,2.03706
1370.53720,2.03853
1369.50750,2.04113
1368.47779,2.04199
1367.44809,2.03874
1366.41838,2.03510
1365.38868,2.03442
1364.35897,2.03623
1363.32927,2.03857
1362.29956,2.03845
1361.26986,2.03568
1360.24015,2.03354
1359.21045,2.03381
1358.18074,2.03469
1357.15104,2.03462
1356.12133,2.03459
1355.09163,2.03526
1354.06192,2.03547
1353.03222,2.03387
1352.00251,2.03154
1350.97281,2.03104
1349.94310,2.03258
1348.91340,2.03361
1347.88369,2.03339
1346.85399,2.03370
1345.82428,2.03443
1344.79458,2.03384
1343.76488,2.03282
1342.73517,2.03272
1341.70547,2.03413
1340.67576,2.03712
1339.64606,2.03761
1338.61635,2.03647
1337.58665,2.03826
1336.55694,2.03880
1335.52724,2.03547
1334.49753,2.03251
1333.46783,2.03197
1332.43812,2.03235
1331.40842,2.03273
1330.37871,2.03263
1329.34901,2.03216
1328.31930,2.03249
1327.28960,2.03382
1326.25989,2.03438
1325.23019,2.03364
1324.20048,2.03319
1323.17078,2.03311
1322.14107,2.03236
1321.11137,2.03220
1320.08166,2.03424
1319.05196,2.03570
1318.02225,2.03400
1316.99255,2.03150
1315.96284,2.03059
1314.93314,2.03113
1313.90343,2.03138
1312.87373,2.03016
1311.84402,2.02910
1310.81432,2.02972
1309.78461,2.03083
1308.75491,2.03163
1307.72520,2.03229
1306.69550,2.03287
1305.66579,2.03339
1304.63609,2.03400
1303.60638,2.03411
1302.57668,2.03269
1301.54697,2.03061
1300.51727,2.02934
1299.48756,2.02919
1298.45786,2.02976
1297.42816,2.03070
1296.39845,2.03174
1295.36875,2.03282
1294.33904,2.03362
1293.30934,2.03333
1292.27963,2.03220
1291.24993,2.03114
1290.22022,2.03090
1289.19052,2.03161
1288.16081,2.03199
1287.13111,2.03101
1286.10140,2.02932
1285.07170,2.02836
1284.04199,2.02930
1283.01229,2.03094
1281.98258,2.03054
1280.95288,2.02879
1279.92317,2.02874
1278.89347,2.02979
1277.86376,2.02918
1276.83406,2.02823
1275.80435,2.02838
1274.77465,2.02789
1273.74494,2.02779
1272.71524,2.02857
1271.68553,2.02795
1270.65583,2.02740
1269.62612,2.02872
1268.59642,2.02944
1267.56671,2.02781
1266.53701,2.02538
1265.50730,2.02389
1264.47760,2.02358
1263.44789,2.02365
1262.41819,2.02346
1261.38848,2.02388
1260.35878,2.02505
1259.32907,2.02528
1258.29937,2.02393
1257.26966,2.02314
1256.23996,2.02446
1255.21025,2.02477
1254.18055,2.02219
1253.15085,2.02004
1252.12114,2.02034
1251.09144,2.02142
1250.06173,2.02116
1249.03203,2.01987
1248.00232,2.01965
1246.97262,2.01998
1245.94291,2.01923
1244.91321,2.01853
1243.88350,2.01901
1242.85380,2.02011
1241.82409,2.02122
1240.79439,2.02181
1239.76468,2.02120
1238.73498,2.02044
1237.70527,2.02021
1236.67557,2.01895
1235.64586,2.01713
1234.61616,2.01686
1233.58645,2.01860
1232.55675,2.02073
1231.52704,2.02049
1230.49734,2.01860
1229.46763,2.01813
1228.43793,2.01845
1227.40822,2.01846
1226.37852,2.01750
1225.34881,2.01491
1224.31911,2.01284
1223.28940,2.01229
1222.25970,2.01273
1221.22999,2.01388
1220.20029,2.01474
1219.17058,2.01419
1218.14088,2.01301
1217.11117,2.01357
1216.08147,2.01570
1215.05176,2.01698
1214.02206,2.01710
1212.99235,2.01699
1211.96265,2.01608
1210.93294,2.01480
1209.90324,2.01456
1208.87354,2.01582
1207.84383,2.01715
1206.81413,2.01614
1205.78442,2.01461
1204.75472,2.01514
1203.72501,2.01659
1202.69531,2.01806
1201.66560,2.01934
1200.63590,2.01946
1199.60619,2.01874
1198.57649,2.01813
1197.54678,2.01784
1196.51708,2.01718
1195.48737,2.01594
1194.45767,2.01530
1193.42796,2.01508
1192.39826,2.01533
1191.36855,2.01645
1190.33885,2.01652
1189.30914,2.01610
1188.27944,2.01702
1187.24973,2.01674
1186.22003,2.01417
1185.19032,2.01247
1184.16062,2.01296
1183.13091,2.01363
1182.10121,2.01301
1181.07150,2.01242
1180.04180,2.01274
1179.01209,2.01347
1177.98239,2.01372
1176.95268,2.01356
1175.92298,2.01424
1174.89327,2.01514
1173.86357,2.01536
1172.83386,2.01420
1171.80416,2.01134
1170.77445,2.00944
1169.74475,2.00955
1168.71504,2.00862
1167.68534,2.00668
1166.65563,2.00622
1165.62593,2.00704
1164.59623,2.00760
1163.56652,2.00606
1162.53682,2.00422
1161.50711,2.00505
1160.47741,2.00660
1159.44770,2.00645
1158.41800,2.00568
1157.38829,2.00588
1156.35859,2.00666
1155.32888,2.00635
1154.29918,2.00489
1153.26947,2.00426
1152.23977,2.00519
1151.21006,2.00651
1150.18036,2.00691
1149.15065,2.00706
1148.12095,2.00769
1147.09124,2.00749
1146.06154,2.00679
1145.03183,2.00792
1144.00213,2.00996
1142.97242,2.01024
1141.94272,2.00954
1140.91301,2.00959
1139.88331,2.01056
1138.85360,2.01114
1137.82390,2.01010
1136.79419,2.00833
1135.76449,2.00733
1134.73478,2.00721
1133.70508,2.00774
1132.67537,2.00844
1131.64567,2.00767
1130.61596,2.00562
1129.58626,2.00398
1128.55655,2.00318
1127.52685,2.00232
1126.49714,2.00089
1125.46744,1.99989
1124.43773,2.00001
1123.40803,2.00061
1122.37832,1.99992
1121.34862,1.99755
1120.31891,1.99587
1119.28921,1.99587
1118.25951,1.99572
1117.22980,1.99337
1116.20010,1.98979
1115.17039,1.98753
1114.14069,1.98632
1113.11098,1.98500
1112.08128,1.98326
1111.05157,1.98184
1110.02187,1.98176
1108.99216,1.98178
1107.96246,1.98070
1106.93275,1.97943
1105.90305,1.97917
1104.87334,1.97967
1103.84364,1.98048
1102.81393,1.98067
1101.78423,1.97954
1100.75452,1.97870
1099.72482,1.97880
1098.69511,1.97841
1097.66541,1.97617
1096.63570,1.97290
1095.60600,1.97058
1094.57629,1.96983
1093.54659,1.96996
1092.51688,1.96978
1091.48718,1.96800
1090.45747,1.96541
1089.42777,1.96426
1088.39806,1.96414
1087.36836,1.96308
1086.33865,1.96099
1085.30895,1.95947
1084.27924,1.95935
1083.24954,1.96017
1082.21983,1.96071
1081.19013,1.95991
1080.16042,1.95841
1079.13072,1.95697
1078.10101,1.95547
1077.07131,1.95451
1076.04160,1.95419
1075.01190,1.95361
1073.98220,1.95332
1072.95249,1.95370
1071.92279,1.95321
1070.89308,1.95077
1069.86338,1.94810
1068.83367,1.94727
1067.80397,1.94797
1066.77426,1.94942
1065.74456,1.95035
1064.71485,1.95014
1063.68515,1.94968
1062.65544,1.94801
1061.62574,1.94505
1060.59603,1.94326
1059.56633,1.94281
1058.53662,1.94289
1057.50692,1.94331
1056.47721,1.94308
1055.44751,1.94280
1054.41780,1.94347
1053.38810,1.94349
1052.35839,1.94199
1051.32869,1.94048
1050.29898,1.93970
1049.26928,1.93880
1048.23957,1.93749
1047.20987,1.93738
1046.18016,1.93935
1045.15046,1.94170
1044.12075,1.94277
1043.09105,1.94260
1042.06134,1.94152
1041.03164,1.93941
1040.00193,1.93696
1038.97223,1.93606
1037.94252,1.93685
1036.91282,1.93666
1035.88311,1.93477
1034.85341,1.93243
1033.82370,1.93047
1032.79400,1.92976
1031.76429,1.92964
1030.73459,1.92949
1029.70489,1.92931
1028.67518,1.92909
1027.64548,1.92893
1026.61577,1.92851
1025.58607,1.92881
1024.55636,1.93003
1023.52666,1.93033
1022.49695,1.93004
1021.46725,1.93002
1020.43754,1.92838
1019.40784,1.92634
1018.37813,1.92682
1017.34843,1.92835
1016.31872,1.92968
1015.28902,1.93143
1014.25931,1.93242
1013.22961,1.93185
1012.19990,1.93160
1011.17020,1.93217
1010.14049,1.93183
1009.11079,1.93021
1008.08108,1.92876
1007.05138,1.92879
1006.02167,1.92944
1004.99197,1.92950
1003.96226,1.92918
1002.93256,1.92908
1001.90285,1.93007
1000.87315,1.93149
999.84344,1.93155
998.81374,1.93079
997.78403,1.93026
996.75433,1.92946
995.72462,1.92873
994.69492,1.92937
993.66521,1.93126
992.63551,1.93263
991.60580,1.93235
990.57610,1.93226
989.54639,1.93362
988.51669,1.93459
987.48698,1.93448
986.45728,1.93303
985.42758,1.93067
984.39787,1.93023
983.36817,1.93250
982.33846,1.93501
981.30876,1.93529
980.27905,1.93346
979.24935,1.93224
978.21964,1.93384
977.18994,1.93640
976.16023,1.93673
975.13053,1.93513
974.10082,1.93348
973.07112,1.93336
972.04141,1.93412
971.01171,1.93380
969.98200,1.93261
968.95230,1.93190
967.92259,1.93195
966.89289,1.93168
965.86318,1.93081
964.83348,1.92987
963.80377,1.92887
962.77407,1.92822
961.74436,1.92858
960.71466,1.92909
959.68495,1.92850
958.65525,1.92730
957.62554,1.92696
956.59584,1.92811
955.56613,1.92800
954.53643,1.92530
953.50672,1.92321
952.47702,1.92329
951.44731,1.92388
950.41761,1.92347
949.38790,1.92368
948.35820,1.92568
947.32849,1.92650
946.29879,1.92510
945.26908,1.92432
944.23938,1.92502
943.20967,1.92501
942.17997,1.92392
941.15026,1.92438
940.12056,1.92609
939.09086,1.92646
938.06115,1.92513
937.03145,1.92362
936.00174,1.92303
934.97204,1.92249
933.94233,1.92136
932.91263,1.92084
931.88292,1.92207
930.85322,1.92403
929.82351,1.92518
928.79381,1.92437
927.76410,1.92237
926.73440,1.92287
925.70469,1.92523
924.67499,1.92437
923.64528,1.92046
922.61558,1.91811
921.58587,1.91926
920.55617,1.92256
919.52646,1.92570
918.49676,1.92741
917.46705,1.92671
916.43735,1.92484
915.40764,1.92538
914.37794,1.92737
913.34823,1.92710
912.31853,1.92522
911.28882,1.92424
910.25912,1.92400
909.22941,1.92252
908.19971,1.91975
907.17000,1.91861
906.14030,1.91975
905.11059,1.92123
904.08089,1.92285
903.05118,1.92472
902.02148,1.92518
900.99177,1.92381
899.96207,1.92228
898.93236,1.92169
897.90266,1.92132
896.87295,1.92056
895.84325,1.92005
894.81355,1.92064
893.78384,1.92381
892.75414,1.92707
891.72443,1.92534
890.69473,1.92202
889.66502,1.92226
888.63532,1.92244
887.60561,1.91922
886.57591,1.91640
885.54620,1.91747
884.51650,1.92005
883.48679,1.92142
882.45709,1.92272
881.42738,1.92341
880.39768,1.92236
879.36797,1.92027
878.33827,1.91816
877.30856,1.91759
876.27886,1.91955
875.24915,1.92345
874.21945,1.92558
873.18974,1.92419
872.16004,1.92145
871.13033,1.91960
870.10063,1.91940
869.07092,1.91934
868.04122,1.91941
867.01151,1.91904
865.98181,1.91692
864.95210,1.91475
863.92240,1.91560
862.89269,1.91840
861.86299,1.91967
860.83328,1.92028
859.80358,1.92039
858.77387,1.91886
857.74417,1.91699
856.71446,1.91645
855.68476,1.91810
854.65505,1.92033
853.62535,1.92138
852.59564,1.92168
851.56594,1.92180
850.53624,1.92214
849.50653,1.92209
848.47683,1.92140
847.44712,1.92096
846.41742,1.91869
845.38771,1.91588
844.35801,1.91736
843.32830,1.92145
842.29860,1.92312
841.26889,1.92120
840.23919,1.91960
839.20948,1.91881
838.17978,1.91661
837.15007,1.91526
836.12037,1.91559
835.09066,1.91646
834.06096,1.91828
833.03125,1.91976
832.00155,1.91911
830.97184,1.91812
829.94214,1.91853
828.91243,1.91922
827.88273,1.91912
826.85302,1.91970
825.82332,1.92035
824.79361,1.91782
823.76391,1.91337
822.73420,1.91049
821.70450,1.90974
820.67479,1.90922
819.64509,1.90922
818.61538,1.91042
817.58568,1.91213
816.55597,1.91442
815.52627,1.91648
814.49656,1.91882
813.46686,1.92054
812.43715,1.91846
811.40745,1.91297
810.37774,1.90955
809.34804,1.91047
808.31833,1.91108
807.28863,1.90939
806.25893,1.90802
805.22922,1.90836
804.19952,1.90807
803.16981,1.90817
802.14011,1.90995
801.11040,1.91130
800.08070,1.91363
799.05099,1.91570
798.02129,1.91517
796.99158,1.91403
795.96188,1.91395
794.93217,1.91423
793.90247,1.91251
792.87276,1.91054
791.84306,1.91099
790.81335,1.91242
789.78365,1.91406
788.75394,1.91601
787.72424,1.91606
786.69453,1.91285
785.66483,1.91020
784.63512,1.91269
783.60542,1.91666
782.57571,1.91632
781.54601,1.91293
780.51630,1.90908
779.48660,1.90505
778.45689,1.90304
777.42719,1.90670
776.39748,1.91160
775.36778,1.91177
774.33807,1.91130
773.30837,1.91332
772.27866,1.91516
771.24896,1.91617
770.21925,1.91760
769.18955,1.91940
768.15984,1.91838
767.13014,1.91302
766.10043,1.90809
765.07073,1.90710
764.04102,1.90910
763.01132,1.91257
761.98161,1.91524
760.95191,1.91532
759.92221,1.91478
758.89250,1.91412
757.86280,1.91143
756.83309,1.90768
755.80339,1.90624
754.77368,1.90875
753.74398,1.91142
752.71427,1.91259
751.68457,1.91375
750.65486,1.91428
749.62516,1.91282
748.59545,1.90927
747.56575,1.90695
746.53604,1.90823
745.50634,1.91111
744.47663,1.91225
743.44693,1.91429
742.41722,1.91730
741.38752,1.91499
740.35781,1.91110
739.32811,1.91411
738.29840,1.91974
737.26870,1.91847
736.23899,1.91554
735.20929,1.91996
734.17958,1.92730
733.14988,1.92980
732.12017,1.92836
731.09047,1.92714
730.06076,1.92448
729.03106,1.92126
728.00135,1.92255
726.97165,1.92469
725.94194,1.92371
724.91224,1.92093
723.88253,1.91499
722.85283,1.90706
721.82312,1.89847
720.79342,1.88943
719.76371,1.88077
718.73401,1.87102
717.70430,1.86403
716.67460,1.86266
715.64490,1.86245
714.61519,1.86213
713.58549,1.86384
712.55578,1.86698
711.52608,1.86998
710.49637,1.87250
709.46667,1.87395
708.43696,1.87426
707.40726,1.87440
706.37755,1.87480
705.34785,1.87945
704.31814,1.88641
703.28844,1.88558
702.25873,1.88245
701.22903,1.88460
700.19932,1.88801
699.16962,1.88959
698.13991,1.88648
697.11021,1.88137
696.08050,1.88289
695.05080,1.88896
694.02109,1.89040
692.99139,1.88901
691.96168,1.88793
690.93198,1.88511
689.90227,1.88385
688.87257,1.88673
687.84286,1.89078
686.81316,1.89065
685.78345,1.88534
684.75375,1.88002
683.72404,1.87739
682.69434,1.87654
681.66463,1.87799
680.63493,1.88536
679.60522,1.89486
678.57552,1.89518
677.54581,1.88939
676.51611,1.88758
675.48640,1.88627
674.45670,1.88320
673.42699,1.88712
672.39729,1.89500
671.36759,1.89808
670.33788,1.89956
669.30818,1.89843
668.27847,1.89334
667.24877,1.89367
666.21906,1.89216
665.18936,1.88629
664.15965,1.88169
663.12995,1.88320
662.10024,1.88585
661.07054,1.88548
660.04083,1.88510
659.01113,1.87891
657.98142,1.87019
656.95172,1.87261
655.92201,1.88220
654.89231,1.88519
653.86260,1.88048
652.83290,1.87818
651.80319,1.88168
650.77349,1.88524
649.74378,1.88553
648.71408,1.88531
647.68437,1.88473
646.65467,1.88419
645.62496,1.88619
644.59526,1.89028
643.56555,1.89425
642.53585,1.89377
641.50614,1.88876
640.47644,1.88322
639.44673,1.88254
638.41703,1.88571
637.38732,1.88837
636.35762,1.88991
635.32791,1.88507
634.29821,1.87766
633.26850,1.87980
632.23880,1.88765
631.20909,1.88859
630.17939,1.88156
629.14968,1.87523
628.11998,1.87677
627.09028,1.88791
626.06057,1.90395
625.03087,1.91252
624.00116,1.90688
622.97146,1.90297
621.94175,1.90660
620.91205,1.90011
619.88234,1.88883
618.85264,1.88585
617.82293,1.88667
616.79323,1.89199
615.76352,1.89301
614.73382,1.88133
613.70411,1.87335
612.67441,1.88067
611.64470,1.88755
610.61500,1.88165
609.58529,1.87146
608.55559,1.86624
607.52588,1.86719
606.49618,1.86545
605.46647,1.86115
604.43677,1.86403
603.40706,1.86991
602.37736,1.86954
601.34765,1.86908
600.31795,1.87107
599.28824,1.86458
