5998.03096,1.60100
5997.00125,1.59826
5995.97155,1.60482
5994.94184,1.61613
5993.91214,1.61227
5992.88243,1.60534
5991.85273,1.60907
5990.82302,1.60059
5989.79332,1.58038
5988.76361,1.57258
5987.73391,1.58051
5986.70420,1.59079
5985.67450,1.59600
5984.64479,1.59736
5983.61509,1.59655
5982.58538,1.59867
5981.55568,1.60768
5980.52597,1.61501
5979.49627,1.61677
5978.46656,1.61742
5977.43686,1.61658
5976.40715,1.61579
5975.37745,1.61453
5974.34774,1.61162
5973.31804,1.61150
5972.28833,1.61319
5971.25863,1.61336
5970.22892,1.61234
5969.19922,1.60898
5968.16951,1.60621
5967.13981,1.60866
5966.11010,1.61220
5965.08040,1.61006
5964.05069,1.60381
5963.02099,1.60506
5961.99128,1.61416
5960.96158,1.61845
5959.93187,1.61411
5958.90217,1.60619
5957.87247,1.59922
5956.84276,1.59494
5955.81306,1.59351
5954.78335,1.59665
5953.75365,1.60598
5952.72394,1.61537
5951.69424,1.61380
5950.66453,1.60267
5949.63483,1.59858
5948.60512,1.60513
5947.57542,1.60587
5946.54571,1.60245
5945.51601,1.60710
5944.48630,1.61136
5943.45660,1.61156
5942.42689,1.61850
5941.39719,1.63067
5940.36748,1.63796
5939.33778,1.64095
5938.30807,1.63949
5937.27837,1.63103
5936.24866,1.62200
5935.21896,1.61438
5934.18925,1.60644
5933.15955,1.60295
5932.12984,1.60686
5931.10014,1.61509
5930.07043,1.62354
5929.04073,1.62914
5928.01102,1.62866
5926.98132,1.62396
5925.95161,1.62190
5924.92191,1.62335
5923.89220,1.62382
5922.86250,1.62276
5921.83279,1.62379
5920.80309,1.62453
5919.77338,1.62133
5918.74368,1.61965
5917.71397,1.62390
5916.68427,1.62909
5915.65456,1.62860
5914.62486,1.62630
5913.59515,1.62906
5912.56545,1.63312
5911.53575,1.63208
5910.50604,1.62827
5909.47634,1.62337
5908.44663,1.61735
5907.41693,1.61632
5906.38722,1.62061
5905.35752,1.62517
5904.32781,1.63067
5903.29811,1.63323
5902.26840,1.63106
5901.23870,1.63409
5900.20899,1.63945
5899.17929,1.63591
5898.14958,1.62946
5897.11988,1.62777
5896.09017,1.62798
5895.06047,1.62836
5894.03076,1.63056
5893.00106,1.63488
5891.97135,1.63973
5890.94165,1.64375
5889.91194,1.64313
5888.88224,1.63711
5887.85253,1.63200
5886.82283,1.63105
5885.79312,1.63116
5884.76342,1.63034
5883.73371,1.63124
5882.70401,1.63527
5881.67430,1.64274
5880.64460,1.64990
5879.61489,1.64718
5878.58519,1.63904
5877.55548,1.63964
5876.52578,1.64823
5875.49607,1.65484
5874.46637,1.65614
5873.43666,1.65247
5872.40696,1.64590
5871.37725,1.64209
5870.34755,1.64269
5869.31784,1.64502
5868.28814,1.64451
5867.25844,1.63874
5866.22873,1.63809
5865.19903,1.64445
5864.16932,1.64534
5863.13962,1.64315
5862.10991,1.64565
5861.08021,1.64838
5860.05050,1.64631
5859.02080,1.64485
5857.99109,1.64699
5856.96139,1.64937
5855.93168,1.65653
5854.90198,1.66372
5853.87227,1.66140
5852.84257,1.65787
5851.81286,1.65539
5850.78316,1.65365
5849.75345,1.65569
5848.72375,1.65748
5847.69404,1.65978
5846.66434,1.66176
5845.63463,1.66044
5844.60493,1.65979
5843.57522,1.65880
5842.54552,1.65537
5841.51581,1.65251
5840.48611,1.65145
5839.45640,1.65069
5838.42670,1.65030
5837.39699,1.65363
5836.36729,1.66089
5835.33758,1.66682
5834.30788,1.66950
5833.27817,1.66910
5832.24847,1.66842
5831.21876,1.67164
5830.18906,1.67370
5829.15935,1.67066
5828.12965,1.66761
5827.09994,1.66372
5826.07024,1.66039
5825.04053,1.66698
5824.01083,1.67719
5822.98113,1.67577
5821.95142,1.66563
5820.92172,1.65841
5819.89201,1.65504
5818.86231,1.65462
5817.83260,1.65820
5816.80290,1.66231
5815.77319,1.66774
5814.74349,1.67214
5813.71378,1.66758
5812.68408,1.66000
5811.65437,1.65848
5810.62467,1.66332
5809.59496,1.66917
5808.56526,1.67032
5807.53555,1.66649
5806.50585,1.66264
5805.47614,1.66365
5804.44644,1.66950
5803.41673,1.67493
5802.38703,1.67347
5801.35732,1.66961
5800.32762,1.67195
5799.29791,1.67542
5798.26821,1.67366
5797.23850,1.67261
5796.20880,1.67550
5795.17909,1.68028
5794.14939,1.68269
5793.11968,1.67972
5792.08998,1.67542
5791.06027,1.67273
5790.03057,1.67448
5789.00086,1.67976
5787.97116,1.67885
5786.94145,1.67355
5785.91175,1.67237
5784.88204,1.67280
5783.85234,1.67307
5782.82263,1.67247
5781.79293,1.66948
5780.76322,1.67090
5779.73352,1.67670
5778.70382,1.67966
5777.67411,1.68196
5776.64441,1.68665
5775.61470,1.68899
5774.58500,1.68878
5773.55529,1.68805
5772.52559,1.68279
5771.49588,1.67485
5770.46618,1.66900
5769.43647,1.66464
5768.40677,1.66069
5767.37706,1.65813
5766.34736,1.65929
5765.31765,1.66231
5764.28795,1.66313
5763.25824,1.66107
5762.22854,1.65640
5761.19883,1.65615
5760.16913,1.66502
5759.13942,1.67282
5758.10972,1.67185
5757.08001,1.66771
5756.05031,1.66483
5755.02060,1.66277
5753.99090,1.66202
5752.96119,1.65854
5751.93149,1.65004
5750.90178,1.64469
5749.87208,1.64880
5748.84237,1.65548
5747.81267,1.65701
5746.78296,1.65752
5745.75326,1.65696
5744.72355,1.65340
5743.69385,1.65434
5742.66414,1.65928
5741.63444,1.65907
5740.60473,1.65470
5739.57503,1.65243
5738.54532,1.65530
5737.51562,1.66252
5736.48591,1.66603
5735.45621,1.66263
5734.42650,1.65673
5733.39680,1.65391
5732.36710,1.65638
5731.33739,1.65718
5730.30769,1.65585
5729.27798,1.65884
5728.24828,1.66306
5727.21857,1.66507
5726.18887,1.66790
5725.15916,1.66932
5724.12946,1.66475
5723.09975,1.65522
5722.07005,1.64804
5721.04034,1.65056
5720.01064,1.65675
5718.98093,1.65650
5717.95123,1.65094
5716.92152,1.65135
5715.89182,1.66026
5714.86211,1.66215
5713.83241,1.65475
5712.80270,1.65052
5711.77300,1.65260
5710.74329,1.65825
5709.71359,1.66082
5708.68388,1.65802
5707.65418,1.65650
5706.62447,1.65541
5705.59477,1.65267
5704.56506,1.65341
5703.53536,1.65766
5702.50565,1.66164
5701.47595,1.66361
5700.44624,1.66212
5699.41654,1.65997
5698.38683,1.65938
5697.35713,1.65570
5696.32742,1.65170
5695.29772,1.65467
5694.26801,1.66263
5693.23831,1.66876
5692.20860,1.67037
5691.17890,1.67163
5690.14919,1.67286
5689.11949,1.66926
5688.08979,1.66317
5687.06008,1.66333
5686.03038,1.67075
5685.00067,1.67469
5683.97097,1.67140
5682.94126,1.66823
5681.91156,1.66513
5680.88185,1.66007
5679.85215,1.65756
5678.82244,1.65777
5677.79274,1.65846
5676.76303,1.65947
5675.73333,1.66237
5674.70362,1.66456
5673.67392,1.65928
5672.64421,1.65062
5671.61451,1.64861
5670.58480,1.65352
5669.55510,1.65793
5668.52539,1.65919
5667.49569,1.66099
5666.46598,1.66543
5665.43628,1.66950
5664.40657,1.67204
5663.37687,1.67328
5662.34716,1.66713
5661.31746,1.65552
5660.28775,1.64816
5659.25805,1.64991
5658.22834,1.65801
5657.19864,1.66265
5656.16893,1.65937
5655.13923,1.65542
5654.10952,1.65806
5653.07982,1.66263
5652.05011,1.65990
5651.02041,1.65458
5649.99070,1.65447
5648.96100,1.65526
5647.93129,1.65513
5646.90159,1.65722
5645.87188,1.65580
5644.84218,1.64975
5643.81248,1.64835
5642.78277,1.65239
5641.75307,1.65563
5640.72336,1.65699
5639.69366,1.65435
5638.66395,1.64751
5637.63425,1.64369
5636.60454,1.64434
5635.57484,1.64459
5634.54513,1.64415
5633.51543,1.64482
5632.48572,1.64692
5631.45602,1.64855
5630.42631,1.64802
5629.39661,1.64794
5628.36690,1.64829
5627.33720,1.64681
5626.30749,1.64515
5625.27779,1.64505
5624.24808,1.64547
5623.21838,1.64448
5622.18867,1.64549
5621.15897,1.64843
5620.12926,1.64651
5619.09956,1.64282
5618.06985,1.64291
5617.04015,1.64335
5616.01044,1.64522
5614.98074,1.65041
5613.95103,1.65187
5612.92133,1.64576
5611.89162,1.63676
5610.86192,1.63197
5609.83221,1.63643
5608.80251,1.64411
5607.77280,1.64552
5606.74310,1.64452
5605.71339,1.64457
5604.68369,1.64192
5603.65398,1.63934
5602.62428,1.63989
5601.59457,1.64185
5600.56487,1.64439
5599.53517,1.64661
5598.50546,1.64612
5597.47576,1.64356
5596.44605,1.64148
5595.41635,1.63916
5594.38664,1.63639
5593.35694,1.63558
5592.32723,1.63720
5591.29753,1.64175
5590.26782,1.64891
5589.23812,1.65414
5588.20841,1.65471
5587.17871,1.65119
5586.14900,1.64620
5585.11930,1.64503
5584.08959,1.64687
5583.05989,1.64335
5582.03018,1.63916
5581.00048,1.64273
5579.97077,1.64596
5578.94107,1.64688
5577.91136,1.64838
5576.88166,1.64603
5575.85195,1.64515
5574.82225,1.64960
5573.79254,1.65002
5572.76284,1.64284
5571.73313,1.63582
5570.70343,1.63604
5569.67372,1.64167
5568.64402,1.64416
5567.61431,1.64244
5566.58461,1.64055
5565.55490,1.63963
5564.52520,1.64095
5563.49549,1.64166
5562.46579,1.63933
5561.43608,1.63924
5560.40638,1.64627
5559.37667,1.65204
5558.34697,1.64592
5557.31726,1.63881
5556.28756,1.64310
5555.25785,1.64840
5554.22815,1.64546
5553.19845,1.64426
5552.16874,1.64834
5551.13904,1.64951
5550.10933,1.64741
5549.07963,1.64807
5548.04992,1.65121
5547.02022,1.65102
5545.99051,1.64644
5544.96081,1.64219
5543.93110,1.64269
5542.90140,1.64521
5541.87169,1.64614
5540.84199,1.64624
5539.81228,1.64470
5538.78258,1.64506
5537.75287,1.64754
5536.72317,1.64825
5535.69346,1.64812
5534.66376,1.64654
5533.63405,1.64500
5532.60435,1.64368
5531.57464,1.64221
5530.54494,1.64447
5529.51523,1.64675
5528.48553,1.64688
5527.45582,1.64930
5526.42612,1.64941
5525.39641,1.64483
5524.36671,1.64247
5523.33700,1.64153
5522.30730,1.63686
5521.27759,1.63380
5520.24789,1.63731
5519.21818,1.64541
5518.18848,1.65377
5517.15877,1.65344
5516.12907,1.64706
5515.09936,1.64434
5514.06966,1.64340
5513.03995,1.64367
5512.01025,1.64495
5510.98054,1.64331
5509.95084,1.64187
5508.92114,1.64302
5507.89143,1.64247
5506.86173,1.64031
5505.83202,1.64097
5504.80232,1.64261
5503.77261,1.64276
5502.74291,1.64389
5501.71320,1.64492
5500.68350,1.64412
5499.65379,1.64255
5498.62409,1.63778
5497.59438,1.63055
5496.56468,1.63167
5495.53497,1.64238
5494.50527,1.64787
5493.47556,1.64181
5492.44586,1.63395
5491.41615,1.63023
5490.38645,1.63107
5489.35674,1.63960
5488.32704,1.64922
5487.29733,1.64753
5486.26763,1.64093
5485.23792,1.63931
5484.20822,1.63929
5483.17851,1.63889
5482.14881,1.63747
5481.11910,1.63603
5480.08940,1.63534
5479.05969,1.63298
5478.02999,1.63357
5477.00028,1.63611
5475.97058,1.63595
5474.94087,1.63732
5473.91117,1.64152
5472.88146,1.64474
5471.85176,1.64555
5470.82205,1.64463
5469.79235,1.64433
5468.76264,1.64484
5467.73294,1.64232
5466.70323,1.63710
5465.67353,1.63108
5464.64383,1.62516
5463.61412,1.62334
5462.58442,1.62762
5461.55471,1.63424
5460.52501,1.63538
5459.49530,1.63353
5458.46560,1.63702
5457.43589,1.64265
5456.40619,1.64244
5455.37648,1.63978
5454.34678,1.63992
5453.31707,1.64058
5452.28737,1.63846
5451.25766,1.63548
5450.22796,1.63720
5449.19825,1.64101
5448.16855,1.64248
5447.13884,1.64204
5446.10914,1.63825
5445.07943,1.63585
5444.04973,1.64002
5443.02002,1.64418
5441.99032,1.64414
5440.96061,1.64443
5439.93091,1.64524
5438.90120,1.64282
5437.87150,1.64001
5436.84179,1.63964
5435.81209,1.63795
5434.78238,1.63423
5433.75268,1.63395
5432.72297,1.63564
5431.69327,1.63669
5430.66356,1.63768
5429.63386,1.63787
5428.60415,1.63691
5427.57445,1.63790
5426.54474,1.64111
5425.51504,1.64219
5424.48533,1.64024
5423.45563,1.63796
5422.42592,1.63717
5421.39622,1.63593
5420.36652,1.63204
5419.33681,1.62920
5418.30711,1.63009
5417.27740,1.63232
5416.24770,1.63430
5415.21799,1.63395
5414.18829,1.63028
5413.15858,1.63139
5412.12888,1.63817
5411.09917,1.64209
5410.06947,1.64093
5409.03976,1.63872
5408.01006,1.63746
5406.98035,1.63497
5405.95065,1.63092
5404.92094,1.62799
5403.89124,1.62841
5402.86153,1.63058
5401.83183,1.63042
5400.80212,1.62977
5399.77242,1.63291
5398.74271,1.63782
5397.71301,1.63851
5396.68330,1.63276
5395.65360,1.62944
5394.62389,1.63118
5393.59419,1.63073
5392.56448,1.62985
5391.53478,1.63104
5390.50507,1.63455
5389.47537,1.63698
5388.44566,1.63473
5387.41596,1.63417
5386.38625,1.63625
5385.35655,1.63461
5384.32684,1.63305
5383.29714,1.63543
5382.26743,1.63554
5381.23773,1.63335
5380.20802,1.63259
5379.17832,1.63036
5378.14861,1.62770
5377.11891,1.62761
5376.08920,1.62717
5375.05950,1.62440
5374.02980,1.62388
5373.00009,1.62817
5371.97039,1.63247
5370.94068,1.63232
5369.91098,1.62903
5368.88127,1.62667
5367.85157,1.62851
5366.82186,1.63284
5365.79216,1.63713
5364.76245,1.63896
5363.73275,1.63500
5362.70304,1.63104
5361.67334,1.63315
5360.64363,1.63708
5359.61393,1.63860
5358.58422,1.63564
5357.55452,1.63104
5356.52481,1.63060
5355.49511,1.63112
5354.46540,1.62937
5353.43570,1.62834
5352.40599,1.62571
5351.37629,1.62160
5350.34658,1.62401
5349.31688,1.63238
5348.28717,1.63718
5347.25747,1.63793
5346.22776,1.64040
5345.19806,1.64477
5344.16835,1.64513
5343.13865,1.63933
5342.10894,1.63384
5341.07924,1.63189
5340.04953,1.63004
5339.01983,1.62623
5337.99012,1.62364
5336.96042,1.62505
5335.93071,1.62946
5334.90101,1.63367
5333.87130,1.63518
5332.84160,1.63345
5331.81189,1.63030
5330.78219,1.62820
5329.75249,1.62903
5328.72278,1.63262
5327.69308,1.63648
5326.66337,1.63670
5325.63367,1.63281
5324.60396,1.63049
5323.57426,1.63259
5322.54455,1.63343
5321.51485,1.63182
5320.48514,1.63393
5319.45544,1.63852
5318.42573,1.63923
5317.39603,1.63428
5316.36632,1.63030
5315.33662,1.63355
5314.30691,1.63830
5313.27721,1.63691
5312.24750,1.63262
5311.21780,1.63164
5310.18809,1.63449
5309.15839,1.64040
5308.12868,1.64440
5307.09898,1.64006
5306.06927,1.63535
5305.03957,1.63704
5304.00986,1.63891
5302.98016,1.63769
5301.95045,1.63534
5300.92075,1.63503
5299.89104,1.64070
5298.86134,1.64618
5297.83163,1.64464
5296.80193,1.64035
5295.77222,1.63902
5294.74252,1.64239
5293.71281,1.64636
5292.68311,1.64911
5291.65340,1.65345
5290.62370,1.65364
5289.59399,1.64652
5288.56429,1.63968
5287.53458,1.63771
5286.50488,1.64351
5285.47518,1.65164
5284.44547,1.65297
5283.41577,1.65182
5282.38606,1.65404
5281.35636,1.65681
5280.32665,1.65551
5279.29695,1.65357
5278.26724,1.65870
5277.23754,1.66445
5276.20783,1.66227
5275.17813,1.65521
5274.14842,1.64993
5273.11872,1.65269
5272.08901,1.66065
5271.05931,1.66643
5270.02960,1.66813
5268.99990,1.66668
5267.97019,1.66531
5266.94049,1.66461
5265.91078,1.66259
5264.88108,1.66104
5263.85137,1.66003
5262.82167,1.66178
5261.79196,1.66893
5260.76226,1.67493
5259.73255,1.67553
5258.70285,1.67220
5257.67314,1.66989
5256.64344,1.67327
5255.61373,1.67867
5254.58403,1.67887
5253.55432,1.67585
5252.52462,1.67512
5251.49491,1.67530
5250.46521,1.67640
5249.43550,1.67923
5248.40580,1.68123
5247.37609,1.68233
5246.34639,1.68391
5245.31668,1.68441
5244.28698,1.68297
5243.25727,1.68075
5242.22757,1.67862
5241.19786,1.67694
5240.16816,1.67666
5239.13846,1.67843
5238.10875,1.67944
5237.07905,1.68032
5236.04934,1.68571
5235.01964,1.68891
5233.98993,1.68292
5232.96023,1.67828
5231.93052,1.68385
5230.90082,1.69552
5229.87111,1.70017
5228.84141,1.69318
5227.81170,1.68607
5226.78200,1.68600
5225.75229,1.68986
5224.72259,1.69148
5223.69288,1.69418
5222.66318,1.70363
5221.63347,1.71178
5220.60377,1.71155
5219.57406,1.70621
5218.54436,1.70164
5217.51465,1.70296
5216.48495,1.70661
5215.45524,1.70674
5214.42554,1.70841
5213.39583,1.71526
5212.36613,1.71887
5211.33642,1.71463
5210.30672,1.70887
5209.27701,1.70495
5208.24731,1.70405
5207.21760,1.70659
5206.18790,1.70999
5205.15819,1.71153
5204.12849,1.71171
5203.09878,1.71252
5202.06908,1.71226
5201.03937,1.71171
5200.00967,1.71325
5198.97996,1.71116
5197.95026,1.70399
5196.92055,1.69812
5195.89085,1.69868
5194.86115,1.70509
5193.83144,1.71094
5192.80174,1.71531
5191.77203,1.72046
5190.74233,1.72227
5189.71262,1.72006
5188.68292,1.71584
5187.65321,1.71041
5186.62351,1.70619
5185.59380,1.70866
5184.56410,1.71775
5183.53439,1.72223
5182.50469,1.71931
5181.47498,1.71333
5180.44528,1.70988
5179.41557,1.71209
5178.38587,1.71430
5177.35616,1.71589
5176.32646,1.71992
5175.29675,1.72317
5174.26705,1.72355
5173.23734,1.72227
5172.20764,1.72204
5171.17793,1.72392
5170.14823,1.72544
5169.11852,1.72380
5168.08882,1.72035
5167.05911,1.71690
5166.02941,1.71463
5164.99970,1.71756
5163.97000,1.72120
5162.94029,1.71826
5161.91059,1.71473
5160.88088,1.71465
5159.85118,1.71551
5158.82147,1.71974
5157.79177,1.72706
5156.76206,1.73068
5155.73236,1.73082
5154.70265,1.72993
5153.67295,1.72536
5152.64324,1.71940
5151.61354,1.71810
5150.58384,1.72143
5149.55413,1.72443
5148.52443,1.72619
5147.49472,1.72725
5146.46502,1.72673
5145.43531,1.72298
5144.40561,1.71772
5143.37590,1.71926
5142.34620,1.72362
5141.31649,1.71861
5140.28679,1.71129
5139.25708,1.71364
5138.22738,1.72372
5137.19767,1.73208
5136.16797,1.73306
5135.13826,1.73042
5134.10856,1.72954
5133.07885,1.72933
5132.04915,1.72927
5131.01944,1.73292
5129.98974,1.73572
5128.96003,1.73362
5127.93033,1.73328
5126.90062,1.73247
5125.87092,1.72815
5124.84121,1.72735
5123.81151,1.72707
5122.78180,1.72116
5121.75210,1.71478
5120.72239,1.71386
5119.69269,1.71858
5118.66298,1.72405
5117.63328,1.72816
5116.60357,1.73079
5115.57387,1.72663
5114.54416,1.71841
5113.51446,1.71663
5112.48475,1.72052
5111.45505,1.72263
5110.42534,1.72065
5109.39564,1.71884
5108.36593,1.71985
5107.33623,1.72245
5106.30653,1.72532
5105.27682,1.72384
5104.24712,1.71913
5103.21741,1.71658
5102.18771,1.71794
5101.15800,1.72520
5100.12830,1.73307
5099.09859,1.73256
5098.06889,1.72715
5097.03918,1.72413
5096.00948,1.72213
5094.97977,1.71870
5093.95007,1.71726
5092.92036,1.71929
5091.89066,1.71806
5090.86095,1.71410
5089.83125,1.71504
5088.80154,1.71653
5087.77184,1.71485
5086.74213,1.71409
5085.71243,1.71509
5084.68272,1.71517
5083.65302,1.71228
5082.62331,1.71079
5081.59361,1.71394
5080.56390,1.71517
5079.53420,1.71117
5078.50449,1.70879
5077.47479,1.71122
5076.44508,1.71522
5075.41538,1.71682
5074.38567,1.71463
5073.35597,1.71232
5072.32626,1.71156
5071.29656,1.70905
5070.26685,1.70681
5069.23715,1.70925
5068.20744,1.71469
5067.17774,1.71685
5066.14803,1.71462
5065.11833,1.71334
5064.08862,1.71238
5063.05892,1.71118
5062.02921,1.71240
5060.99951,1.71203
5059.96981,1.70565
5058.94010,1.69581
5057.91040,1.69094
5056.88069,1.69497
5055.85099,1.70028
5054.82128,1.70121
5053.79158,1.70147
5052.76187,1.70452
5051.73217,1.70931
5050.70246,1.71151
5049.67276,1.71115
5048.64305,1.71209
5047.61335,1.71357
5046.58364,1.71418
5045.55394,1.71447
5044.52423,1.71393
5043.49453,1.71194
5042.46482,1.71145
5041.43512,1.71196
5040.40541,1.70750
5039.37571,1.69940
5038.34600,1.69634
5037.31630,1.70087
5036.28659,1.70647
5035.25689,1.70879
5034.22718,1.70988
5033.19748,1.70956
5032.16777,1.70609
5031.13807,1.70339
5030.10836,1.70335
5029.07866,1.70604
5028.04895,1.70839
5027.01925,1.70386
5025.98954,1.69725
5024.95984,1.69609
5023.93013,1.69796
5022.90043,1.69901
5021.87072,1.69831
5020.84102,1.69567
5019.81131,1.69492
5018.78161,1.69776
5017.75190,1.69902
5016.72220,1.69968
5015.69250,1.70205
5014.66279,1.70046
5013.63309,1.69474
5012.60338,1.69353
5011.57368,1.69620
5010.54397,1.69765
5009.51427,1.70099
5008.48456,1.70469
5007.45486,1.70374
5006.42515,1.70103
5005.39545,1.69643
5004.36574,1.69110
5003.33604,1.69272
5002.30633,1.69607
5001.27663,1.69247
5000.24692,1.68822
4999.21722,1.68996
4998.18751,1.69543
4997.15781,1.69880
4996.12810,1.70042
4995.09840,1.70441
4994.06869,1.70676
4993.03899,1.70293
4992.00928,1.69698
4990.97958,1.69248
4989.94987,1.68781
4988.92017,1.68505
4987.89046,1.68766
4986.86076,1.69261
4985.83105,1.69597
4984.80135,1.69878
4983.77164,1.70173
4982.74194,1.70300
4981.71223,1.70120
4980.68253,1.69894
4979.65282,1.70073
4978.62312,1.70358
4977.59341,1.70084
4976.56371,1.69528
4975.53400,1.69165
4974.50430,1.69077
4973.47459,1.69272
4972.44489,1.69401
4971.41519,1.69334
4970.38548,1.69355
4969.35578,1.69620
4968.32607,1.70101
4967.29637,1.70355
4966.26666,1.70323
4965.23696,1.70321
4964.20725,1.70138
4963.17755,1.69891
4962.14784,1.70022
4961.11814,1.69970
4960.08843,1.69227
4959.05873,1.68701
4958.02902,1.68826
4956.99932,1.69018
4955.96961,1.69058
4954.93991,1.69096
4953.91020,1.69156
4952.88050,1.69025
4951.85079,1.68819
4950.82109,1.68741
4949.79138,1.68536
4948.76168,1.68524
4947.73197,1.69066
4946.70227,1.69616
4945.67256,1.69710
4944.64286,1.69349
4943.61315,1.68851
4942.58345,1.68748
4941.55374,1.69113
4940.52404,1.69510
4939.49433,1.69710
4938.46463,1.69563
4937.43492,1.69204
4936.40522,1.69080
4935.37551,1.69127
4934.34581,1.69157
4933.31610,1.69171
4932.28640,1.69262
4931.25669,1.69406
4930.22699,1.69503
4929.19728,1.69560
4928.16758,1.69661
4927.13788,1.69698
4926.10817,1.69392
4925.07847,1.68997
4924.04876,1.68796
4923.01906,1.68812
4921.98935,1.69060
4920.95965,1.69262
4919.92994,1.69162
4918.90024,1.69014
4917.87053,1.69167
4916.84083,1.69463
4915.81112,1.69607
4914.78142,1.69639
4913.75171,1.69649
4912.72201,1.69495
4911.69230,1.69238
4910.66260,1.69149
4909.63289,1.69226
4908.60319,1.69458
4907.57348,1.69874
4906.54378,1.69955
4905.51407,1.69486
4904.48437,1.69160
4903.45466,1.69171
4902.42496,1.69234
4901.39525,1.69548
4900.36555,1.69867
4899.33584,1.69515
4898.30614,1.69037
4897.27643,1.69164
4896.24673,1.69555
4895.21702,1.69762
4894.18732,1.69671
4893.15761,1.69498
4892.12791,1.69509
4891.09820,1.69490
4890.06850,1.69474
4889.03879,1.69636
4888.00909,1.69473
4886.97938,1.68921
4885.94968,1.68750
4884.91997,1.69184
4883.89027,1.69764
4882.86056,1.70195
4881.83086,1.70354
4880.80116,1.70229
4879.77145,1.70024
4878.74175,1.69872
4877.71204,1.69780
4876.68234,1.69588
4875.65263,1.69469
4874.62293,1.69986
4873.59322,1.70661
4872.56352,1.70579
4871.53381,1.70288
4870.50411,1.70312
4869.47440,1.70132
4868.44470,1.69810
4867.41499,1.69758
4866.38529,1.69917
4865.35558,1.70088
4864.32588,1.70181
4863.29617,1.70229
4862.26647,1.70143
4861.23676,1.69912
4860.20706,1.69669
4859.17735,1.69491
4858.14765,1.69474
4857.11794,1.69558
4856.08824,1.69699
4855.05853,1.69932
4854.02883,1.69984
4852.99912,1.69653
4851.96942,1.69455
4850.93971,1.69744
4849.91001,1.69959
4848.88030,1.69792
4847.85060,1.69669
4846.82089,1.69788
4845.79119,1.69989
4844.76148,1.70010
4843.73178,1.69881
4842.70207,1.70036
4841.67237,1.70196
4840.64266,1.69828
4839.61296,1.69469
4838.58325,1.69472
4837.55355,1.69495
4836.52385,1.69535
4835.49414,1.69732
4834.46444,1.69860
4833.43473,1.69739
4832.40503,1.69529
4831.37532,1.69365
4830.34562,1.69369
4829.31591,1.69649
4828.28621,1.69910
4827.25650,1.69923
4826.22680,1.69960
4825.19709,1.70147
4824.16739,1.70347
4823.13768,1.70376
4822.10798,1.70172
4821.07827,1.69919
4820.04857,1.69880
4819.01886,1.70252
4817.98916,1.70619
4816.95945,1.70509
4815.92975,1.70109
4814.90004,1.69748
4813.87034,1.69733
4812.84063,1.70012
4811.81093,1.70157
4810.78122,1.69976
4809.75152,1.69762
4808.72181,1.69846
4807.69211,1.70205
4806.66240,1.70512
4805.63270,1.70233
4804.60299,1.69631
4803.57329,1.69642
4802.54358,1.70224
4801.51388,1.70627
4800.48417,1.70512
4799.45447,1.70152
4798.42476,1.69972
4797.39506,1.69819
4796.36535,1.69602
4795.33565,1.69599
4794.30594,1.69697
4793.27624,1.69798
4792.24654,1.69986
4791.21683,1.70131
4790.18713,1.70243
4789.15742,1.70430
4788.12772,1.70617
4787.09801,1.70690
4786.06831,1.70572
4785.03860,1.70195
4784.00890,1.69719
4782.97919,1.69702
4781.94949,1.70242
4780.91978,1.70620
4779.89008,1.70644
4778.86037,1.70589
4777.83067,1.70288
4776.80096,1.69886
4775.77126,1.69787
4774.74155,1.69848
4773.71185,1.69963
4772.68214,1.70350
4771.65244,1.70738
4770.62273,1.70725
4769.59303,1.70517
4768.56332,1.70302
4767.53362,1.70219
4766.50391,1.70330
4765.47421,1.70388
4764.44450,1.70491
4763.41480,1.70623
4762.38509,1.70493
4761.35539,1.70285
4760.32568,1.70103
4759.29598,1.69882
4758.26627,1.69776
4757.23657,1.69831
4756.20686,1.69960
4755.17716,1.70144
4754.14745,1.70269
4753.11775,1.70180
4752.08804,1.69991
4751.05834,1.70016
4750.02863,1.70413
4748.99893,1.70796
4747.96923,1.70726
4746.93952,1.70442
4745.90982,1.70314
4744.88011,1.70230
4743.85041,1.70065
4742.82070,1.69982
4741.79100,1.69911
4740.76129,1.69773
4739.73159,1.70053
4738.70188,1.70645
4737.67218,1.70634
4736.64247,1.70137
4735.61277,1.69995
4734.58306,1.70302
4733.55336,1.70580
4732.52365,1.70649
4731.49395,1.70596
4730.46424,1.70263
4729.43454,1.69896
4728.40483,1.70039
4727.37513,1.70329
4726.34542,1.70212
4725.31572,1.70131
4724.28601,1.70347
4723.25631,1.70395
4722.22660,1.70275
4721.19690,1.70234
4720.16719,1.70111
4719.13749,1.69948
4718.10778,1.70175
4717.07808,1.70738
4716.04837,1.70940
4715.01867,1.70634
4713.98896,1.70397
4712.95926,1.70488
4711.92955,1.70659
4710.89985,1.70517
4709.87014,1.70211
4708.84044,1.70276
4707.81073,1.70506
4706.78103,1.70501
4705.75132,1.70440
4704.72162,1.70455
4703.69191,1.70391
4702.66221,1.70110
4701.63251,1.69974
4700.60280,1.70275
4699.57310,1.70450
4698.54339,1.70374
4697.51369,1.70592
4696.48398,1.70916
4695.45428,1.70777
4694.42457,1.70455
4693.39487,1.70551
4692.36516,1.70915
4691.33546,1.71118
4690.30575,1.71064
4689.27605,1.70965
4688.24634,1.70896
4687.21664,1.70606
4686.18693,1.70212
4685.15723,1.70032
4684.12752,1.70091
4683.09782,1.70332
4682.06811,1.70410
4681.03841,1.70145
4680.00870,1.69976
4678.97900,1.70029
4677.94929,1.70220
4676.91959,1.70550
4675.88988,1.70739
4674.86018,1.70673
4673.83047,1.70512
4672.80077,1.70376
4671.77106,1.70371
4670.74136,1.70516
4669.71165,1.70586
4668.68195,1.70444
4667.65224,1.70295
4666.62254,1.70197
4665.59283,1.70110
4664.56313,1.70226
4663.53342,1.70553
4662.50372,1.70749
4661.47401,1.70714
4660.44431,1.70654
4659.41460,1.70617
4658.38490,1.70657
4657.35520,1.70726
4656.32549,1.70654
4655.29579,1.70424
4654.26608,1.70240
4653.23638,1.70336
4652.20667,1.70532
4651.17697,1.70666
4650.14726,1.70738
4649.11756,1.70711
4648.08785,1.70668
4647.05815,1.70695
4646.02844,1.70669
4644.99874,1.70432
4643.96903,1.70249
4642.93933,1.70222
4641.90962,1.70277
4640.87992,1.70527
4639.85021,1.70782
4638.82051,1.70618
4637.79080,1.70162
4636.76110,1.70108
4635.73139,1.70357
4634.70169,1.70386
4633.67198,1.70427
4632.64228,1.70541
4631.61257,1.70580
4630.58287,1.70660
4629.55316,1.70622
4628.52346,1.70404
4627.49375,1.70241
4626.46405,1.70240
4625.43434,1.70453
4624.40464,1.70784
4623.37493,1.70864
4622.34523,1.70591
4621.31552,1.70208
4620.28582,1.69949
4619.25611,1.69888
4618.22641,1.69844
4617.19670,1.69767
4616.16700,1.69890
4615.13729,1.70227
4614.10759,1.70402
4613.07789,1.70336
4612.04818,1.70252
4611.01848,1.69987
4609.98877,1.69659
4608.95907,1.69636
4607.92936,1.69941
4606.89966,1.70544
4605.86995,1.70975
4604.84025,1.70641
4603.81054,1.69904
4602.78084,1.69616
4601.75113,1.69900
4600.72143,1.70102
4599.69172,1.70085
4598.66202,1.70247
4597.63231,1.70417
4596.60261,1.70417
4595.57290,1.70420
4594.54320,1.70416
4593.51349,1.70335
4592.48379,1.70171
4591.45408,1.69991
4590.42438,1.69921
4589.39467,1.70069
4588.36497,1.70199
4587.33526,1.70084
4586.30556,1.70146
4585.27585,1.70347
4584.24615,1.70212
4583.21644,1.70063
4582.18674,1.70129
4581.15703,1.70090
4580.12733,1.69902
4579.09762,1.69736
4578.06792,1.69587
4577.03821,1.69569
4576.00851,1.69855
4574.97880,1.70153
4573.94910,1.70176
4572.91939,1.70084
4571.88969,1.69945
4570.85998,1.69786
4569.83028,1.69793
4568.80058,1.69856
4567.77087,1.69791
4566.74117,1.69725
4565.71146,1.69834
4564.68176,1.70007
4563.65205,1.70075
4562.62235,1.69963
4561.59264,1.69649
4560.56294,1.69380
4559.53323,1.69350
4558.50353,1.69499
4557.47382,1.69791
4556.44412,1.70028
4555.41441,1.69941
4554.38471,1.69669
4553.35500,1.69476
4552.32530,1.69511
4551.29559,1.69740
4550.26589,1.69817
4549.23618,1.69652
4548.20648,1.69552
4547.17677,1.69608
4546.14707,1.69661
4545.11736,1.69659
4544.08766,1.69607
4543.05795,1.69556
4542.02825,1.69603
4540.99854,1.69756
4539.96884,1.69997
4538.93913,1.70120
4537.90943,1.70139
4536.87972,1.70281
4535.85002,1.70296
4534.82031,1.70003
4533.79061,1.69727
4532.76090,1.69795
4531.73120,1.70174
4530.70149,1.70372
4529.67179,1.70132
4528.64208,1.69861
4527.61238,1.69843
4526.58267,1.69937
4525.55297,1.69952
4524.52326,1.69980
4523.49356,1.70079
4522.46386,1.70033
4521.43415,1.69999
4520.40445,1.70167
4519.37474,1.70266
4518.34504,1.70180
4517.31533,1.70074
4516.28563,1.69998
4515.25592,1.69820
4514.22622,1.69587
4513.19651,1.69576
4512.16681,1.69755
4511.13710,1.69857
4510.10740,1.69924
4509.07769,1.70086
4508.04799,1.70258
4507.01828,1.70282
4505.98858,1.70159
4504.95887,1.70178
4503.92917,1.70425
4502.89946,1.70554
4501.86976,1.70459
4500.84005,1.70249
4499.81035,1.70059
4498.78064,1.70145
4497.75094,1.70376
4496.72123,1.70407
4495.69153,1.70302
4494.66182,1.70319
4493.63212,1.70457
4492.60241,1.70592
4491.57271,1.70635
4490.54300,1.70634
4489.51330,1.70675
4488.48359,1.70664
4487.45389,1.70645
4486.42418,1.70631
4485.39448,1.70540
4484.36477,1.70582
4483.33507,1.70826
4482.30536,1.71000
4481.27566,1.70949
4480.24595,1.70793
4479.21625,1.70710
4478.18655,1.70722
4477.15684,1.70804
4476.12714,1.70954
4475.09743,1.71105
4474.06773,1.71226
4473.03802,1.71238
4472.00832,1.71194
4470.97861,1.71250
4469.94891,1.71361
4468.91920,1.71478
4467.88950,1.71598
4466.85979,1.71676
4465.83009,1.71585
4464.80038,1.71356
4463.77068,1.71353
4462.74097,1.71647
4461.71127,1.71895
4460.68156,1.72005
4459.65186,1.72094
4458.62215,1.72181
4457.59245,1.72265
4456.56274,1.72349
4455.53304,1.72333
4454.50333,1.72132
4453.47363,1.72042
4452.44392,1.72293
4451.41422,1.72643
4450.38451,1.72911
4449.35481,1.73198
4448.32510,1.73488
4447.29540,1.73550
4446.26569,1.73376
4445.23599,1.73235
4444.20628,1.73336
4443.17658,1.73577
4442.14687,1.73749
4441.11717,1.73877
4440.08746,1.74002
4439.05776,1.74046
4438.02805,1.74110
4436.99835,1.74316
4435.96864,1.74403
4434.93894,1.74289
4433.90924,1.74301
4432.87953,1.74540
4431.84983,1.74858
4430.82012,1.75027
4429.79042,1.75077
4428.76071,1.75219
4427.73101,1.75328
4426.70130,1.75259
4425.67160,1.75250
4424.64189,1.75500
4423.61219,1.75978
4422.58248,1.76488
4421.55278,1.76672
4420.52307,1.76544
4419.49337,1.76449
4418.46366,1.76435
4417.43396,1.76358
4416.40425,1.76392
4415.37455,1.76667
4414.34484,1.77049
4413.31514,1.77486
4412.28543,1.77812
4411.25573,1.77901
4410.22602,1.77952
4409.19632,1.78084
4408.16661,1.78259
4407.13691,1.78434
4406.10720,1.78426
4405.07750,1.78436
4404.04779,1.78705
4403.01809,1.78830
4401.98838,1.78758
4400.95868,1.78825
4399.92897,1.79040
4398.89927,1.79103
4397.86956,1.79042
4396.83986,1.79238
4395.81015,1.79599
4394.78045,1.79894
4393.75074,1.80074
4392.72104,1.80303
4391.69133,1.80535
4390.66163,1.80425
4389.63193,1.80250
4388.60222,1.80299
4387.57252,1.80439
4386.54281,1.80592
4385.51311,1.80719
4384.48340,1.80868
4383.45370,1.80958
4382.42399,1.80912
4381.39429,1.81062
4380.36458,1.81487
4379.33488,1.81739
4378.30517,1.81795
4377.27547,1.81924
4376.24576,1.82012
4375.21606,1.82002
4374.18635,1.82050
4373.15665,1.82137
4372.12694,1.82329
4371.09724,1.82712
4370.06753,1.82970
4369.03783,1.82849
4368.00812,1.82677
4366.97842,1.82866
4365.94871,1.83227
4364.91901,1.83416
4363.88930,1.83448
4362.85960,1.83489
4361.82989,1.83741
4360.80019,1.84219
4359.77048,1.84603
4358.74078,1.84674
4357.71107,1.84712
4356.68137,1.84856
4355.65166,1.85018
4354.62196,1.85221
4353.59225,1.85236
4352.56255,1.85207
4351.53284,1.85619
4350.50314,1.86125
4349.47343,1.86238
4348.44373,1.86214
4347.41402,1.86234
4346.38432,1.86287
4345.35461,1.86469
4344.32491,1.86673
4343.29521,1.86832
4342.26550,1.86895
4341.23580,1.86780
4340.20609,1.86820
4339.17639,1.87139
4338.14668,1.87291
4337.11698,1.87352
4336.08727,1.87653
4335.05757,1.87946
4334.02786,1.88041
4332.99816,1.87923
4331.96845,1.87613
4330.93875,1.87448
4329.90904,1.87519
4328.87934,1.87670
4327.84963,1.87876
4326.81993,1.88208
4325.79022,1.88568
4324.76052,1.88449
4323.73081,1.87960
4322.70111,1.87777
4321.67140,1.87893
4320.64170,1.87827
4319.61199,1.87236
4318.58229,1.86459
4317.55258,1.86173
4316.52288,1.86162
4315.49317,1.85854
4314.46347,1.85245
4313.43376,1.84698
4312.40406,1.84449
4311.37435,1.84326
4310.34465,1.84168
4309.31494,1.84041
4308.28524,1.84020
4307.25553,1.84023
4306.22583,1.84058
4305.19612,1.84184
4304.16642,1.84233
4303.13671,1.84147
4302.10701,1.84070
4301.07730,1.83970
4300.04760,1.83884
4299.01790,1.83885
4297.98819,1.83709
4296.95849,1.83535
4295.92878,1.83665
4294.89908,1.83759
4293.86937,1.83650
4292.83967,1.83613
4291.80996,1.83762
4290.78026,1.83985
4289.75055,1.84102
4288.72085,1.84013
4287.69114,1.83808
4286.66144,1.83637
4285.63173,1.83699
4284.60203,1.83941
4283.57232,1.84192
4282.54262,1.84480
4281.51291,1.84724
4280.48321,1.84824
4279.45350,1.84866
4278.42380,1.85004
4277.39409,1.85211
4276.36439,1.85367
4275.33468,1.85404
4274.30498,1.85311
4273.27527,1.85353
4272.24557,1.85595
4271.21586,1.85711
4270.18616,1.85611
4269.15645,1.85541
4268.12675,1.85756
4267.09704,1.86040
4266.06734,1.86130
4265.03763,1.86045
4264.00793,1.85891
4262.97822,1.85983
4261.94852,1.86261
4260.91881,1.86541
4259.88911,1.86742
4258.85940,1.86767
4257.82970,1.86695
4256.79999,1.86599
4255.77029,1.86730
4254.74059,1.87032
4253.71088,1.87148
4252.68118,1.87153
4251.65147,1.87125
4250.62177,1.86894
4249.59206,1.86467
4248.56236,1.86057
4247.53265,1.85752
4246.50295,1.85379
4245.47324,1.85049
4244.44354,1.85042
4243.41383,1.85060
4242.38413,1.84921
4241.35442,1.84795
4240.32472,1.84667
4239.29501,1.84512
4238.26531,1.84380
4237.23560,1.84338
4236.20590,1.84287
4235.17619,1.84195
4234.14649,1.84245
4233.11678,1.84232
4232.08708,1.84055
4231.05737,1.84054
4230.02767,1.84152
4228.99796,1.84147
4227.96826,1.84155
4226.93855,1.84059
4225.90885,1.83832
4224.87914,1.83807
4223.84944,1.84026
4222.81973,1.84209
4221.79003,1.84280
4220.76032,1.84326
4219.73062,1.84219
4218.70091,1.83987
4217.67121,1.83945
4216.64150,1.84168
4215.61180,1.84359
4214.58209,1.84293
4213.55239,1.84088
4212.52268,1.83896
4211.49298,1.83924
4210.46328,1.84193
4209.43357,1.84380
4208.40387,1.84466
4207.37416,1.84535
4206.34446,1.84591
4205.31475,1.84712
4204.28505,1.84757
4203.25534,1.84571
4202.22564,1.84373
4201.19593,1.84448
4200.16623,1.84742
4199.13652,1.84903
4198.10682,1.84900
4197.07711,1.84865
4196.04741,1.84765
4195.01770,1.84869
4193.98800,1.85165
4192.95829,1.85248
4191.92859,1.85005
4190.89888,1.84650
4189.86918,1.84599
4188.83947,1.84853
4187.80977,1.84867
4186.78006,1.84565
4185.75036,1.84455
4184.72065,1.84644
4183.69095,1.84839
4182.66124,1.84894
4181.63154,1.84902
4180.60183,1.84972
4179.57213,1.85026
4178.54242,1.84929
4177.51272,1.84792
4176.48301,1.84936
4175.45331,1.85121
4174.42360,1.84917
4173.39390,1.84690
4172.36419,1.84713
4171.33449,1.84832
4170.30478,1.84972
4169.27508,1.85049
4168.24537,1.85027
4167.21567,1.85017
4166.18596,1.85052
4165.15626,1.84952
4164.12656,1.84748
4163.09685,1.84666
4162.06715,1.84697
4161.03744,1.84760
4160.00774,1.84881
4158.97803,1.84985
4157.94833,1.84880
4156.91862,1.84652
4155.88892,1.84500
4154.85921,1.84395
4153.82951,1.84369
4152.79980,1.84492
4151.77010,1.84660
4150.74039,1.84784
4149.71069,1.84843
4148.68098,1.84832
4147.65128,1.84771
4146.62157,1.84708
4145.59187,1.84623
4144.56216,1.84409
4143.53246,1.84192
4142.50275,1.84234
4141.47305,1.84438
4140.44334,1.84472
4139.41364,1.84329
4138.38393,1.84283
4137.35423,1.84391
4136.32452,1.84589
4135.29482,1.84651
4134.26511,1.84468
4133.23541,1.84326
4132.20570,1.84265
4131.17600,1.84283
4130.14629,1.84517
4129.11659,1.84738
4128.08688,1.84715
4127.05718,1.84676
4126.02747,1.84743
4124.99777,1.84657
4123.96806,1.84394
4122.93836,1.84235
4121.90865,1.84331
4120.87895,1.84565
4119.84925,1.84632
4118.81954,1.84460
4117.78984,1.84330
4116.76013,1.84389
4115.73043,1.84527
4114.70072,1.84604
4113.67102,1.84587
4112.64131,1.84498
4111.61161,1.84373
4110.58190,1.84374
4109.55220,1.84556
4108.52249,1.84749
4107.49279,1.84848
4106.46308,1.84939
4105.43338,1.84973
4104.40367,1.84727
4103.37397,1.84317
4102.34426,1.84210
4101.31456,1.84515
4100.28485,1.84705
4099.25515,1.84639
4098.22544,1.84742
4097.19574,1.84815
4096.16603,1.84492
4095.13633,1.84263
4094.10662,1.84549
4093.07692,1.84858
4092.04721,1.84727
4091.01751,1.84424
4089.98780,1.84309
4088.95810,1.84456
4087.92839,1.84635
4086.89869,1.84625
4085.86898,1.84553
4084.83928,1.84582
4083.80957,1.84751
4082.77987,1.84934
4081.75016,1.84861
4080.72046,1.84567
4079.69075,1.84448
4078.66105,1.84563
4077.63134,1.84588
4076.60164,1.84403
4075.57194,1.84164
4074.54223,1.84160
4073.51253,1.84419
4072.48282,1.84585
4071.45312,1.84484
4070.42341,1.84372
4069.39371,1.84405
4068.36400,1.84433
4067.33430,1.84459
4066.30459,1.84550
4065.27489,1.84709
4064.24518,1.84962
4063.21548,1.85198
4062.18577,1.85222
4061.15607,1.85099
4060.12636,1.85158
4059.09666,1.85339
4058.06695,1.85296
4057.03725,1.85085
4056.00754,1.85009
4054.97784,1.85053
4053.94813,1.85032
4052.91843,1.85105
4051.88872,1.85306
4050.85902,1.85392
4049.82931,1.85368
4048.79961,1.85317
4047.76990,1.85282
4046.74020,1.85320
4045.71049,1.85353
4044.68079,1.85266
4043.65108,1.85169
4042.62138,1.85243
4041.59167,1.85324
4040.56197,1.85251
4039.53226,1.85216
4038.50256,1.85295
4037.47285,1.85320
4036.44315,1.85314
4035.41344,1.85290
4034.38374,1.85192
4033.35403,1.85087
4032.32433,1.84997
4031.29463,1.84974
4030.26492,1.85076
4029.23522,1.85283
4028.20551,1.85500
4027.17581,1.85545
4026.14610,1.85466
4025.11640,1.85510
4024.08669,1.85582
4023.05699,1.85423
4022.02728,1.85210
4020.99758,1.85216
4019.96787,1.85320
4018.93817,1.85380
4017.90846,1.85491
4016.87876,1.85620
4015.84905,1.85509
4014.81935,1.85187
4013.78964,1.85013
4012.75994,1.85054
4011.73023,1.85146
4010.70053,1.85211
4009.67082,1.85201
4008.64112,1.85124
4007.61141,1.84961
4006.58171,1.84773
4005.55200,1.84885
4004.52230,1.85196
4003.49259,1.85304
4002.46289,1.85293
4001.43318,1.85187
4000.40348,1.84913
3999.37377,1.84836
3998.34407,1.85092
3997.31436,1.85209
3996.28466,1.85042
3995.25495,1.84919
3994.22525,1.84760
3993.19554,1.84556
3992.16584,1.84683
3991.13613,1.84966
3990.10643,1.85076
3989.07672,1.85087
3988.04702,1.84908
3987.01731,1.84637
3985.98761,1.84584
3984.95791,1.84753
3983.92820,1.84945
3982.89850,1.85091
3981.86879,1.85242
3980.83909,1.85211
3979.80938,1.85058
3978.77968,1.85204
3977.74997,1.85491
3976.72027,1.85529
3975.69056,1.85379
3974.66086,1.85205
3973.63115,1.85211
3972.60145,1.85408
3971.57174,1.85406
3970.54204,1.85081
3969.51233,1.84689
3968.48263,1.84443
3967.45292,1.84443
3966.42322,1.84630
3965.39351,1.84789
3964.36381,1.84777
3963.33410,1.84646
3962.30440,1.84563
3961.27469,1.84707
3960.24499,1.85059
3959.21528,1.85364
3958.18558,1.85386
3957.15587,1.85093
3956.12617,1.84800
3955.09646,1.84800
3954.06676,1.84932
3953.03705,1.84882
3952.00735,1.84729
3950.97764,1.84809
3949.94794,1.84953
3948.91823,1.84881
3947.88853,1.84776
3946.85882,1.84857
3945.82912,1.85083
3944.79941,1.85249
3943.76971,1.85196
3942.74000,1.84953
3941.71030,1.84839
3940.68060,1.84955
3939.65089,1.85081
3938.62119,1.85006
3937.59148,1.84755
3936.56178,1.84561
3935.53207,1.84555
3934.50237,1.84731
3933.47266,1.84901
3932.44296,1.84843
3931.41325,1.84828
3930.38355,1.84892
3929.35384,1.84643
3928.32414,1.84402
3927.29443,1.84411
3926.26473,1.84226
3925.23502,1.83759
3924.20532,1.83649
3923.17561,1.84011
3922.14591,1.84233
3921.11620,1.84100
3920.08650,1.83844
3919.05679,1.83845
3918.02709,1.83961
3916.99738,1.83849
3915.96768,1.83775
3914.93797,1.83914
3913.90827,1.84097
3912.87856,1.84307
3911.84886,1.84379
3910.81915,1.84251
3909.78945,1.84144
3908.75974,1.84080
3907.73004,1.83968
3906.70033,1.83742
3905.67063,1.83546
3904.64092,1.83647
3903.61122,1.83790
3902.58151,1.83580
3901.55181,1.83414
3900.52210,1.83760
3899.49240,1.84001
3898.46269,1.83713
3897.43299,1.83498
3896.40329,1.83453
3895.37358,1.83451
3894.34388,1.83399
3893.31417,1.83296
3892.28447,1.83388
3891.25476,1.83375
3890.22506,1.83111
3889.19535,1.83199
3888.16565,1.83504
3887.13594,1.83644
3886.10624,1.83513
3885.07653,1.83439
3884.04683,1.83593
3883.01712,1.83772
3881.98742,1.84117
3880.95771,1.84388
3879.92801,1.83960
3878.89830,1.83420
3877.86860,1.83221
3876.83889,1.83288
3875.80919,1.83422
3874.77948,1.83255
3873.74978,1.82837
3872.72007,1.82989
3871.69037,1.83725
3870.66066,1.84309
3869.63096,1.83802
3868.60125,1.83133
3867.57155,1.83087
3866.54184,1.83361
3865.51214,1.83597
3864.48243,1.83391
3863.45273,1.83193
3862.42302,1.83104
3861.39332,1.82914
3860.36361,1.82757
3859.33391,1.82724
3858.30420,1.82992
3857.27450,1.83569
3856.24479,1.84049
3855.21509,1.84306
3854.18538,1.84288
3853.15568,1.83438
3852.12598,1.82657
3851.09627,1.82557
3850.06657,1.82577
3849.03686,1.82674
3848.00716,1.83039
3846.97745,1.83393
3845.94775,1.83526
3844.91804,1.83519
3843.88834,1.83410
3842.85863,1.83536
3841.82893,1.83881
3840.79922,1.83876
3839.76952,1.83692
3838.73981,1.83614
3837.71011,1.83177
3836.68040,1.82829
3835.65070,1.82719
3834.62099,1.82644
3833.59129,1.82841
3832.56158,1.83168
3831.53188,1.83132
3830.50217,1.82821
3829.47247,1.82819
3828.44276,1.83105
3827.41306,1.83187
3826.38335,1.82988
3825.35365,1.82920
3824.32394,1.83031
3823.29424,1.83355
3822.26453,1.83809
3821.23483,1.83723
3820.20512,1.83336
3819.17542,1.83468
3818.14571,1.83831
3817.11601,1.84259
3816.08630,1.84221
3815.05660,1.83665
3814.02689,1.83516
3812.99719,1.83591
3811.96748,1.83455
3810.93778,1.83288
3809.90807,1.83452
3808.87837,1.83847
3807.84866,1.84201
3806.81896,1.84131
3805.78926,1.83856
3804.75955,1.83861
3803.72985,1.83997
3802.70014,1.84180
3801.67044,1.84273
3800.64073,1.84090
3799.61103,1.83935
3798.58132,1.83934
3797.55162,1.84062
3796.52191,1.84054
3795.49221,1.83879
3794.46250,1.83786
3793.43280,1.83676
3792.40309,1.83555
3791.37339,1.83499
3790.34368,1.83495
3789.31398,1.83537
3788.28427,1.83535
3787.25457,1.83534
3786.22486,1.83626
3785.19516,1.83749
3784.16545,1.83836
3783.13575,1.83910
3782.10604,1.84029
3781.07634,1.84242
3780.04663,1.84328
3779.01693,1.83975
3777.98722,1.83698
3776.95752,1.83814
3775.92781,1.84058
3774.89811,1.84152
3773.86840,1.84139
3772.83870,1.84191
3771.80899,1.84367
3770.77929,1.84518
3769.74958,1.84267
3768.71988,1.84033
3767.69017,1.84357
3766.66047,1.84986
3765.63076,1.85235
3764.60106,1.84981
3763.57135,1.84858
3762.54165,1.84955
3761.51195,1.85111
3760.48224,1.85173
3759.45254,1.84979
3758.42283,1.84949
3757.39313,1.85129
3756.36342,1.85004
3755.33372,1.84896
3754.30401,1.85219
3753.27431,1.85743
3752.24460,1.85815
3751.21490,1.85283
3750.18519,1.85029
3749.15549,1.85035
3748.12578,1.85174
3747.09608,1.85493
3746.06637,1.85838
3745.03667,1.85902
3744.00696,1.85502
3742.97726,1.85598
3741.94755,1.85724
3740.91785,1.85617
3739.88814,1.85819
3738.85844,1.86422
3737.82873,1.87052
3736.79903,1.87420
3735.76932,1.87067
3734.73962,1.86244
3733.70991,1.86154
3732.68021,1.86315
3731.65050,1.86107
3730.62080,1.86118
3729.59109,1.86533
3728.56139,1.86751
3727.53168,1.86516
3726.50198,1.86378
3725.47227,1.86728
3724.44257,1.87059
3723.41286,1.87244
3722.38316,1.87300
3721.35345,1.87336
3720.32375,1.87554
3719.29404,1.87674
3718.26434,1.87791
3717.23464,1.87998
3716.20493,1.88113
3715.17523,1.88354
3714.14552,1.88841
3713.11582,1.89176
3712.08611,1.88787
3711.05641,1.88447
3710.02670,1.88775
3708.99700,1.89113
3707.96729,1.89385
3706.93759,1.89655
3705.90788,1.89682
3704.87818,1.89616
3703.84847,1.89786
3702.81877,1.90054
3701.78906,1.90223
3700.75936,1.90540
3699.72965,1.91136
3698.69995,1.91716
3697.67024,1.92056
3696.64054,1.92204
3695.61083,1.92255
3694.58113,1.92402
3693.55142,1.92855
3692.52172,1.93400
3691.49201,1.93609
3690.46231,1.93665
3689.43260,1.93795
3688.40290,1.93763
3687.37319,1.94194
3686.34349,1.94972
3685.31378,1.95577
3684.28408,1.95961
3683.25437,1.96254
3682.22467,1.96569
3681.19496,1.96933
3680.16526,1.97322
3679.13555,1.97786
3678.10585,1.98463
3677.07614,1.99262
3676.04644,1.99433
3675.01673,1.98343
3673.98703,1.98178
3672.95733,1.98872
3671.92762,1.99737
3670.89792,2.00344
3669.86821,2.00473
3668.83851,2.00496
3667.80880,2.00617
3666.77910,2.01082
3665.74939,2.01802
3664.71969,2.02379
3663.68998,2.02402
3662.66028,2.02034
3661.63057,2.01846
3660.60087,2.02051
3659.57116,2.02547
3658.54146,2.03220
3657.51175,2.03992
3656.48205,2.04440
3655.45234,2.04399
3654.42264,2.04428
3653.39293,2.04669
3652.36323,2.05067
3651.33352,2.05372
3650.30382,2.05672
3649.27411,2.06442
3648.24441,2.06953
3647.21470,2.06638
3646.18500,2.06072
3645.15529,2.05650
3644.12559,2.05596
3643.09588,2.05961
3642.06618,2.06501
3641.03647,2.07067
3640.00677,2.07379
3638.97706,2.07417
3637.94736,2.07546
3636.91765,2.07816
3635.88795,2.08095
3634.85824,2.08157
3633.82854,2.07996
3632.79883,2.08275
3631.76913,2.09060
3630.73942,2.09847
3629.70972,2.09882
3628.68001,2.08463
3627.65031,2.07916
3626.62061,2.08196
3625.59090,2.08505
3624.56120,2.09089
3623.53149,2.09732
3622.50179,2.10024
3621.47208,2.10234
3620.44238,2.10607
3619.41267,2.10426
3618.38297,2.09566
3617.35326,2.09236
3616.32356,2.09511
3615.29385,2.09684
3614.26415,2.09767
3613.23444,2.10034
3612.20474,2.10162
3611.17503,2.10346
3610.14533,2.10696
3609.11562,2.10669
3608.08592,2.10331
3607.05621,2.10156
3606.02651,2.10110
3604.99680,2.10078
3603.96710,2.10205
3602.93739,2.10638
3601.90769,2.11023
3600.87798,2.10923
3599.84828,2.10618
3598.81857,2.10549
3597.78887,2.10661
3596.75916,2.10873
3595.72946,2.10963
3594.69975,2.10728
3593.67005,2.10425
3592.64034,2.10132
3591.61064,2.10187
3590.58093,2.10659
3589.55123,2.10973
3588.52152,2.10790
3587.49182,2.10106
3586.46211,2.09175
3585.43241,2.08750
3584.40270,2.08980
3583.37300,2.09419
3582.34330,2.09884
3581.31359,2.10393
3580.28389,2.10610
3579.25418,2.10397
3578.22448,2.10159
3577.19477,2.10252
3576.16507,2.10379
3575.13536,2.10224
3574.10566,2.10103
3573.07595,2.10114
3572.04625,2.10096
3571.01654,2.09924
3569.98684,2.09702
3568.95713,2.09653
3567.92743,2.09556
3566.89772,2.09222
3565.86802,2.09227
3564.83831,2.09682
3563.80861,2.09982
3562.77890,2.09996
3561.74920,2.10071
3560.71949,2.10385
3559.68979,2.10675
3558.66008,2.10670
3557.63038,2.10613
3556.60067,2.10664
3555.57097,2.10711
3554.54126,2.10824
3553.51156,2.11048
3552.48185,2.11076
3551.45215,2.10743
3550.42244,2.10530
3549.39274,2.10567
3548.36303,2.10558
3547.33333,2.10382
3546.30362,2.10203
3545.27392,2.10081
3544.24421,2.09870
3543.21451,2.09789
3542.18480,2.09977
3541.15510,2.09933
3540.12539,2.09770
3539.09569,2.10233
3538.06599,2.10821
3537.03628,2.10787
3536.00658,2.10519
3534.97687,2.10288
3533.94717,2.09957
3532.91746,2.09767
3531.88776,2.09933
3530.85805,2.10164
3529.82835,2.10240
3528.79864,2.10247
3527.76894,2.10188
3526.73923,2.10098
3525.70953,2.10105
3524.67982,2.10164
3523.65012,2.09975
3522.62041,2.09566
3521.59071,2.09603
3520.56100,2.09873
3519.53130,2.09937
3518.50159,2.10264
3517.47189,2.10456
3516.44218,2.10043
3515.41248,2.09811
3514.38277,2.09924
3513.35307,2.09946
3512.32336,2.10034
3511.29366,2.10232
3510.26395,2.10201
3509.23425,2.10031
3508.20454,2.10016
3507.17484,2.10035
3506.14513,2.10029
3505.11543,2.10054
3504.08572,2.09982
3503.05602,2.09925
3502.02631,2.10032
3500.99661,2.10129
3499.96690,2.10194
3498.93720,2.10266
3497.90749,2.10190
3496.87779,2.10071
3495.84808,2.10149
3494.81838,2.10182
3493.78868,2.10038
3492.75897,2.09855
3491.72927,2.09771
3490.69956,2.10006
3489.66986,2.10310
3488.64015,2.10209
3487.61045,2.09983
3486.58074,2.10077
3485.55104,2.10284
3484.52133,2.10214
3483.49163,2.09800
3482.46192,2.09430
3481.43222,2.09336
3480.40251,2.09322
3479.37281,2.09360
3478.34310,2.09602
3477.31340,2.10029
3476.28369,2.10295
3475.25399,2.10213
3474.22428,2.09946
3473.19458,2.09629
3472.16487,2.09562
3471.13517,2.09887
3470.10546,2.10102
3469.07576,2.09792
3468.04605,2.09405
3467.01635,2.09501
3465.98664,2.09808
3464.95694,2.09743
3463.92723,2.09362
3462.89753,2.09230
3461.86782,2.09452
3460.83812,2.09558
3459.80841,2.09517
3458.77871,2.09527
3457.74900,2.09652
3456.71930,2.09836
3455.68959,2.09775
3454.65989,2.09522
3453.63018,2.09396
3452.60048,2.09426
3451.57077,2.09420
3450.54107,2.09421
3449.51136,2.09558
3448.48166,2.09556
3447.45196,2.09431
3446.42225,2.09460
3445.39255,2.09493
3444.36284,2.09319
3443.33314,2.09030
3442.30343,2.08925
3441.27373,2.08984
3440.24402,2.08953
3439.21432,2.08969
3438.18461,2.09103
3437.15491,2.09155
3436.12520,2.09048
3435.09550,2.08954
3434.06579,2.09143
3433.03609,2.09421
3432.00638,2.09425
3430.97668,2.09284
3429.94697,2.09173
3428.91727,2.09047
3427.88756,2.08933
3426.85786,2.08862
3425.82815,2.08694
3424.79845,2.08469
3423.76874,2.08499
3422.73904,2.08819
3421.70933,2.08963
3420.67963,2.08866
3419.64992,2.09088
3418.62022,2.09457
3417.59051,2.09372
3416.56081,2.09045
3415.53110,2.08849
3414.50140,2.08773
3413.47169,2.08645
3412.44199,2.08498
3411.41228,2.08612
3410.38258,2.08778
3409.35287,2.08656
3408.32317,2.08513
3407.29346,2.08626
3406.26376,2.08817
3405.23405,2.08835
3404.20435,2.08661
3403.17465,2.08468
3402.14494,2.08353
3401.11524,2.08250
3400.08553,2.08252
3399.05583,2.08481
3398.02612,2.08732
3396.99642,2.08823
3395.96671,2.08717
3394.93701,2.08514
3393.90730,2.08412
3392.87760,2.08405
3391.84789,2.08437
3390.81819,2.08402
3389.78848,2.08241
3388.75878,2.08219
3387.72907,2.08507
3386.69937,2.08775
3385.66966,2.08730
3384.63996,2.08521
3383.61025,2.08301
3382.58055,2.08141
3381.55084,2.08038
3380.52114,2.07916
3379.49143,2.07838
3378.46173,2.07845
3377.43202,2.07802
3376.40232,2.07768
3375.37261,2.07878
3374.34291,2.08027
3373.31320,2.08198
3372.28350,2.08279
3371.25379,2.08204
3370.22409,2.08102
3369.19438,2.08087
3368.16468,2.08247
3367.13497,2.08283
3366.10527,2.08102
3365.07556,2.08050
3364.04586,2.08072
3363.01615,2.07957
3361.98645,2.07777
3360.95674,2.07684
3359.92704,2.07681
3358.89734,2.07564
3357.86763,2.07375
3356.83793,2.07466
3355.80822,2.07728
3354.77852,2.07700
3353.74881,2.07612
3352.71911,2.07865
3351.68940,2.08047
3350.65970,2.07940
3349.62999,2.07881
3348.60029,2.07880
3347.57058,2.07900
3346.54088,2.08003
3345.51117,2.07982
3344.48147,2.07814
3343.45176,2.07651
3342.42206,2.07525
3341.39235,2.07475
3340.36265,2.07522
3339.33294,2.07648
3338.30324,2.07633
3337.27353,2.07294
3336.24383,2.07020
3335.21412,2.07215
3334.18442,2.07390
3333.15471,2.07206
3332.12501,2.07141
3331.09530,2.07339
3330.06560,2.07479
3329.03589,2.07443
3328.00619,2.07439
3326.97648,2.07488
3325.94678,2.07478
3324.91707,2.07456
3323.88737,2.07452
3322.85766,2.07390
3321.82796,2.07319
3320.79825,2.07444
3319.76855,2.07605
3318.73884,2.07558
3317.70914,2.07432
3316.67943,2.07371
3315.64973,2.07391
3314.62003,2.07575
3313.59032,2.07664
3312.56062,2.07363
3311.53091,2.07104
3310.50121,2.07120
3309.47150,2.07115
3308.44180,2.07011
3307.41209,2.06948
3306.38239,2.06913
3305.35268,2.06870
3304.32298,2.06933
3303.29327,2.07171
3302.26357,2.07464
3301.23386,2.07598
3300.20416,2.07517
3299.17445,2.07412
3298.14475,2.07299
3297.11504,2.07212
3296.08534,2.07210
3295.05563,2.07127
3294.02593,2.06976
3292.99622,2.06890
3291.96652,2.07080
3290.93681,2.07286
3289.90711,2.07189
3288.87740,2.07241
3287.84770,2.07433
3286.81799,2.07359
3285.78829,2.07127
3284.75858,2.06812
3283.72888,2.06635
3282.69917,2.06865
3281.66947,2.06993
3280.63976,2.06818
3279.61006,2.06684
3278.58035,2.06606
3277.55065,2.06794
3276.52094,2.07129
3275.49124,2.07017
3274.46153,2.06710
3273.43183,2.06676
3272.40212,2.06756
3271.37242,2.06773
3270.34271,2.06673
3269.31301,2.06544
3268.28331,2.06615
3267.25360,2.06846
3266.22390,2.06946
3265.19419,2.06970
3264.16449,2.07017
3263.13478,2.06833
3262.10508,2.06578
3261.07537,2.06524
3260.04567,2.06489
3259.01596,2.06466
3257.98626,2.06536
3256.95655,2.06600
3255.92685,2.06759
3254.89714,2.06912
3253.86744,2.06867
3252.83773,2.06813
3251.80803,2.06808
3250.77832,2.06745
3249.74862,2.06697
3248.71891,2.06746
3247.68921,2.06697
3246.65950,2.06566
3245.62980,2.06729
3244.60009,2.07085
3243.57039,2.07176
3242.54068,2.07002
3241.51098,2.06774
3240.48127,2.06600
3239.45157,2.06499
3238.42186,2.06454
3237.39216,2.06495
3236.36245,2.06551
3235.33275,2.06648
3234.30304,2.06845
3233.27334,2.06955
3232.24363,2.06719
3231.21393,2.06366
3230.18422,2.06513
3229.15452,2.06930
3228.12481,2.06981
3227.09511,2.06792
3226.06540,2.06711
3225.03570,2.06727
3224.00600,2.06649
3222.97629,2.06475
3221.94659,2.06354
3220.91688,2.06422
3219.88718,2.06674
3218.85747,2.06875
3217.82777,2.06848
3216.79806,2.06575
3215.76836,2.06303
3214.73865,2.06312
3213.70895,2.06401
3212.67924,2.06291
3211.64954,2.06166
3210.61983,2.06244
3209.59013,2.06416
3208.56042,2.06557
3207.53072,2.06553
3206.50101,2.06487
3205.47131,2.06533
3204.44160,2.06533
3203.41190,2.06498
3202.38219,2.06408
3201.35249,2.06084
3200.32278,2.05871
3199.29308,2.06103
3198.26337,2.06414
3197.23367,2.06468
3196.20396,2.06546
3195.17426,2.06841
3194.14455,2.07004
3193.11485,2.06910
3192.08514,2.06937
3191.05544,2.07020
3190.02573,2.06831
3188.99603,2.06699
3187.96632,2.06900
3186.93662,2.07027
3185.90691,2.06956
3184.87721,2.06994
3183.84750,2.07005
3182.81780,2.06782
3181.78809,2.06552
3180.75839,2.06510
3179.72869,2.06569
3178.69898,2.06555
3177.66928,2.06417
3176.63957,2.06282
3175.60987,2.06218
3174.58016,2.06315
3173.55046,2.06682
3172.52075,2.07004
3171.49105,2.07041
3170.46134,2.07057
3169.43164,2.06999
3168.40193,2.06680
3167.37223,2.06387
3166.34252,2.06260
3165.31282,2.06227
3164.28311,2.06265
3163.25341,2.06295
3162.22370,2.06385
3161.19400,2.06531
3160.16429,2.06536
3159.13459,2.06551
3158.10488,2.06706
3157.07518,2.06801
3156.04547,2.06859
3155.01577,2.06940
3153.98606,2.06920
3152.95636,2.06754
3151.92665,2.06535
3150.89695,2.06432
3149.86724,2.06550
3148.83754,2.06771
3147.80783,2.06793
3146.77813,2.06621
3145.74842,2.06506
3144.71872,2.06558
3143.68901,2.06698
3142.65931,2.06739
3141.62960,2.06706
3140.59990,2.06606
3139.57019,2.06392
3138.54049,2.06338
3137.51078,2.06615
3136.48108,2.07015
3135.45138,2.07123
3134.42167,2.06820
3133.39197,2.06517
3132.36226,2.06397
3131.33256,2.06374
3130.30285,2.06496
3129.27315,2.06757
3128.24344,2.06979
3127.21374,2.06992
3126.18403,2.06803
3125.15433,2.06571
3124.12462,2.06439
3123.09492,2.06380
3122.06521,2.06288
3121.03551,2.06098
3120.00580,2.05943
3118.97610,2.06082
3117.94639,2.06476
3116.91669,2.06827
3115.88698,2.06931
3114.85728,2.06907
3113.82757,2.06856
3112.79787,2.06609
3111.76816,2.06344
3110.73846,2.06397
3109.70875,2.06606
3108.67905,2.06690
3107.64934,2.06688
3106.61964,2.06772
3105.58993,2.06895
3104.56023,2.06900
3103.53052,2.06721
3102.50082,2.06393
3101.47111,2.06259
3100.44141,2.06512
3099.41170,2.06827
3098.38200,2.07000
3097.35229,2.07105
3096.32259,2.07111
3095.29288,2.06937
3094.26318,2.06685
3093.23347,2.06660
3092.20377,2.06886
3091.17406,2.07052
3090.14436,2.07035
3089.11466,2.06922
3088.08495,2.06911
3087.05525,2.06954
3086.02554,2.06907
3084.99584,2.06951
3083.96613,2.07063
3082.93643,2.07108
3081.90672,2.07125
3080.87702,2.07032
3079.84731,2.06949
3078.81761,2.07092
3077.78790,2.07189
3076.75820,2.07099
3075.72849,2.07019
3074.69879,2.06971
3073.66908,2.06917
3072.63938,2.06900
3071.60967,2.07044
3070.57997,2.07258
3069.55026,2.07227
3068.52056,2.07000
3067.49085,2.06896
3066.46115,2.06892
3065.43144,2.06891
3064.40174,2.06975
3063.37203,2.07139
3062.34233,2.07313
3061.31262,2.07343
3060.28292,2.07245
3059.25321,2.07132
3058.22351,2.07053
3057.19380,2.07047
3056.16410,2.07007
3055.13439,2.07040
3054.10469,2.07184
3053.07498,2.07166
3052.04528,2.06988
3051.01557,2.06976
3049.98587,2.07132
3048.95616,2.07094
3047.92646,2.06933
3046.89675,2.07021
3045.86705,2.07300
3044.83735,2.07466
3043.80764,2.07466
3042.77794,2.07395
3041.74823,2.07302
3040.71853,2.07344
3039.68882,2.07622
3038.65912,2.07826
3037.62941,2.07629
3036.59971,2.07338
3035.57000,2.07349
3034.54030,2.07535
3033.51059,2.07748
3032.48089,2.07907
3031.45118,2.07944
3030.42148,2.08012
3029.39177,2.08105
3028.36207,2.08144
3027.33236,2.08131
3026.30266,2.08029
3025.27295,2.07987
3024.24325,2.08027
3023.21354,2.07912
3022.18384,2.07765
3021.15413,2.07867
3020.12443,2.08084
3019.09472,2.08296
3018.06502,2.08515
3017.03531,2.08630
3016.00561,2.08675
3014.97590,2.08663
3013.94620,2.08512
3012.91649,2.08348
3011.88679,2.08403
3010.85708,2.08629
3009.82738,2.08672
3008.79767,2.08544
3007.76797,2.08638
3006.73826,2.08903
3005.70856,2.09037
3004.67885,2.09088
3003.64915,2.09156
3002.61944,2.09268
3001.58974,2.09302
3000.56004,2.09070
2999.53033,2.08821
2998.50063,2.08915
2997.47092,2.09302
2996.44122,2.09651
2995.41151,2.09792
2994.38181,2.09808
2993.35210,2.09788
2992.32240,2.09888
2991.29269,2.10106
2990.26299,2.10213
2989.23328,2.10215
2988.20358,2.10378
2987.17387,2.10651
2986.14417,2.10786
2985.11446,2.10874
2984.08476,2.10837
2983.05505,2.10540
2982.02535,2.10424
2980.99564,2.10814
2979.96594,2.11250
2978.93623,2.11211
2977.90653,2.11076
2976.87682,2.11326
2975.84712,2.11695
2974.81741,2.11878
2973.78771,2.12061
2972.75800,2.12430
2971.72830,2.12741
2970.69859,2.12906
2969.66889,2.13134
2968.63918,2.13301
2967.60948,2.13273
2966.57977,2.13274
2965.55007,2.13396
2964.52036,2.13452
2963.49066,2.13491
2962.46095,2.13685
2961.43125,2.13826
2960.40154,2.13786
2959.37184,2.13785
2958.34213,2.13885
2957.31243,2.13954
2956.28273,2.13881
2955.25302,2.13701
2954.22332,2.13582
2953.19361,2.13559
2952.16391,2.13550
2951.13420,2.13435
2950.10450,2.13271
2949.07479,2.13440
2948.04509,2.13797
2947.01538,2.13903
2945.98568,2.14058
2944.95597,2.14545
2943.92627,2.15024
2942.89656,2.15195
2941.86686,2.15225
2940.83715,2.15518
2939.80745,2.16014
2938.77774,2.16147
2937.74804,2.15783
2936.71833,2.15405
2935.68863,2.15400
2934.65892,2.15553
2933.62922,2.15440
2932.59951,2.15016
2931.56981,2.14540
2930.54010,2.14215
2929.51040,2.13793
2928.48069,2.13047
2927.45099,2.12260
2926.42128,2.11600
2925.39158,2.10846
2924.36187,2.09703
2923.33217,2.08022
2922.30246,2.05980
2921.27276,2.03771
2920.24305,2.01298
2919.21335,1.98431
2918.18364,1.95426
2917.15394,1.92768
2916.12423,1.90632
2915.09453,1.89166
2914.06482,1.88579
2913.03512,1.88685
2912.00541,1.89177
2910.97571,1.89872
2909.94601,1.90634
2908.91630,1.91381
2907.88660,1.92021
2906.85689,1.92565
2905.82719,1.93112
2904.79748,1.93648
2903.76778,1.94124
2902.73807,1.94480
2901.70837,1.94736
2900.67866,1.95076
2899.64896,1.95519
2898.61925,1.95887
2897.58955,1.95986
2896.55984,1.95998
2895.53014,1.96242
2894.50043,1.96561
2893.47073,1.96767
2892.44102,1.96865
2891.41132,1.96924
2890.38161,1.97107
2889.35191,1.97423
2888.32220,1.97652
2887.29250,1.97759
2886.26279,1.97912
2885.23309,1.98119
2884.20338,1.98357
2883.17368,1.98559
2882.14397,1.98703
2881.11427,1.98965
2880.08456,1.99344
2879.05486,1.99635
2878.02515,1.99806
2876.99545,1.99992
2875.96574,2.00218
2874.93604,2.00446
2873.90633,2.00597
2872.87663,2.00643
2871.84692,2.00686
2870.81722,2.00728
2869.78751,2.00804
2868.75781,2.01025
2867.72810,2.01465
2866.69840,2.01991
2865.66870,2.02280
2864.63899,2.02356
2863.60929,2.02487
2862.57958,2.02732
2861.54988,2.03054
2860.52017,2.03349
2859.49047,2.03495
2858.46076,2.03534
2857.43106,2.03645
2856.40135,2.03752
2855.37165,2.03545
2854.34194,2.02939
2853.31224,2.01782
2852.28253,1.99815
2851.25283,1.97182
2850.22312,1.94367
2849.19342,1.91829
2848.16371,1.89897
2847.13401,1.88787
2846.10430,1.88488
2845.07460,1.88797
2844.04489,1.89412
2843.01519,1.90008
2841.98548,1.90503
2840.95578,1.91042
2839.92607,1.91564
2838.89637,1.91979
2837.86666,1.92393
2836.83696,1.92769
2835.80725,1.93047
2834.77755,1.93368
2833.74784,1.93793
2832.71814,1.94168
2831.68843,1.94361
2830.65873,1.94423
2829.62902,1.94507
2828.59932,1.94698
2827.56961,1.94974
2826.53991,1.95261
2825.51020,1.95428
2824.48050,1.95506
2823.45079,1.95634
2822.42109,1.95780
2821.39139,1.95903
2820.36168,1.95990
2819.33198,1.96061
2818.30227,1.96172
2817.27257,1.96196
2816.24286,1.96184
2815.21316,1.96329
2814.18345,1.96570
2813.15375,1.96753
2812.12404,1.96784
2811.09434,1.96762
2810.06463,1.96784
2809.03493,1.96761
2808.00522,1.96751
2806.97552,1.96861
2805.94581,1.96972
2804.91611,1.97041
2803.88640,1.97170
2802.85670,1.97282
2801.82699,1.97274
2800.79729,1.97162
2799.76758,1.97012
2798.73788,1.97013
2797.70817,1.97232
2796.67847,1.97433
2795.64876,1.97483
2794.61906,1.97437
2793.58935,1.97363
2792.55965,1.97351
2791.52994,1.97369
2790.50024,1.97408
2789.47053,1.97492
2788.44083,1.97482
2787.41112,1.97397
2786.38142,1.97393
2785.35171,1.97442
2784.32201,1.97504
2783.29230,1.97578
2782.26260,1.97638
2781.23289,1.97644
2780.20319,1.97616
2779.17348,1.97673
2778.14378,1.97822
2777.11408,1.98023
2776.08437,1.98182
2775.05467,1.98149
2774.02496,1.97968
2772.99526,1.97839
2771.96555,1.97860
2770.93585,1.98011
2769.90614,1.98132
2768.87644,1.98043
2767.84673,1.97912
2766.81703,1.97936
2765.78732,1.97959
2764.75762,1.97846
2763.72791,1.97715
2762.69821,1.97749
2761.66850,1.97905
2760.63880,1.97984
2759.60909,1.97974
2758.57939,1.97932
2757.54968,1.97908
2756.51998,1.97995
2755.49027,1.98119
2754.46057,1.98177
2753.43086,1.98142
2752.40116,1.98061
2751.37145,1.98033
2750.34175,1.98090
2749.31204,1.98212
2748.28234,1.98265
2747.25263,1.98223
2746.22293,1.98135
2745.19322,1.97997
2744.16352,1.97902
2743.13381,1.97981
2742.10411,1.98211
2741.07440,1.98347
2740.04470,1.98304
2739.01499,1.98223
2737.98529,1.98126
2736.95558,1.98070
2735.92588,1.98113
2734.89617,1.98175
2733.86647,1.98262
2732.83676,1.98302
2731.80706,1.98195
2730.77736,1.98105
2729.74765,1.98163
2728.71795,1.98242
2727.68824,1.98241
2726.65854,1.98155
2725.62883,1.98026
2724.59913,1.98020
2723.56942,1.98129
2722.53972,1.98226
2721.51001,1.98266
2720.48031,1.98164
2719.45060,1.97987
2718.42090,1.97933
2717.39119,1.98039
2716.36149,1.98200
2715.33178,1.98353
2714.30208,1.98389
2713.27237,1.98263
2712.24267,1.98128
2711.21296,1.98068
2710.18326,1.98062
2709.15355,1.98015
2708.12385,1.97878
2707.09414,1.97849
2706.06444,1.97970
2705.03473,1.98045
2704.00503,1.98116
2702.97532,1.98231
2701.94562,1.98244
2700.91591,1.98153
2699.88621,1.98076
2698.85650,1.98034
2697.82680,1.98064
2696.79709,1.98176
2695.76739,1.98237
2694.73768,1.98236
2693.70798,1.98219
2692.67827,1.98192
2691.64857,1.98203
2690.61886,1.98213
2689.58916,1.98222
2688.55945,1.98287
2687.52975,1.98318
2686.50005,1.98236
2685.47034,1.98110
2684.44064,1.98082
2683.41093,1.98100
2682.38123,1.98045
2681.35152,1.98089
2680.32182,1.98249
2679.29211,1.98303
2678.26241,1.98298
2677.23270,1.98285
2676.20300,1.98162
2675.17329,1.98020
2674.14359,1.97995
2673.11388,1.98065
2672.08418,1.98112
2671.05447,1.98136
2670.02477,1.98178
2668.99506,1.98098
2667.96536,1.97960
2666.93565,1.97955
2665.90595,1.97969
2664.87624,1.97900
2663.84654,1.97891
2662.81683,1.97994
2661.78713,1.98048
2660.75742,1.98031
2659.72772,1.98060
2658.69801,1.98051
2657.66831,1.97989
2656.63860,1.98037
2655.60890,1.98026
2654.57919,1.97858
2653.54949,1.97818
2652.51978,1.97899
2651.49008,1.97855
2650.46037,1.97657
2649.43067,1.97536
2648.40096,1.97599
2647.37126,1.97691
2646.34155,1.97725
2645.31185,1.97734
2644.28214,1.97771
2643.25244,1.97787
2642.22274,1.97748
2641.19303,1.97734
2640.16333,1.97692
2639.13362,1.97610
2638.10392,1.97633
2637.07421,1.97746
2636.04451,1.97782
2635.01480,1.97775
2633.98510,1.97857
2632.95539,1.97872
2631.92569,1.97699
2630.89598,1.97569
2629.86628,1.97581
2628.83657,1.97585
2627.80687,1.97535
2626.77716,1.97478
2625.74746,1.97461
2624.71775,1.97574
2623.68805,1.97769
2622.65834,1.97795
2621.62864,1.97652
2620.59893,1.97563
2619.56923,1.97528
2618.53952,1.97453
2617.50982,1.97435
2616.48011,1.97529
2615.45041,1.97550
2614.42070,1.97441
2613.39100,1.97349
2612.36129,1.97353
2611.33159,1.97414
2610.30188,1.97442
2609.27218,1.97371
2608.24247,1.97312
2607.21277,1.97421
2606.18306,1.97598
2605.15336,1.97635
2604.12365,1.97537
2603.09395,1.97473
2602.06424,1.97446
2601.03454,1.97381
2600.00483,1.97361
2598.97513,1.97334
2597.94543,1.97232
2596.91572,1.97202
2595.88602,1.97274
2594.85631,1.97346
2593.82661,1.97341
2592.79690,1.97321
2591.76720,1.97414
2590.73749,1.97438
2589.70779,1.97307
2588.67808,1.97267
2587.64838,1.97272
2586.61867,1.97168
2585.58897,1.97147
2584.55926,1.97249
2583.52956,1.97197
2582.49985,1.97001
2581.47015,1.96921
2580.44044,1.97027
2579.41074,1.97225
2578.38103,1.97365
2577.35133,1.97351
2576.32162,1.97228
2575.29192,1.97073
2574.26221,1.97009
2573.23251,1.97032
2572.20280,1.97085
2571.17310,1.97209
2570.14339,1.97319
2569.11369,1.97381
2568.08398,1.97481
2567.05428,1.97486
2566.02457,1.97328
2564.99487,1.97239
2563.96516,1.97243
2562.93546,1.97137
2561.90575,1.96999
2560.87605,1.96979
2559.84634,1.97008
2558.81664,1.97058
2557.78693,1.97090
2556.75723,1.96964
2555.72752,1.96788
2554.69782,1.96753
2553.66811,1.96798
2552.63841,1.96786
2551.60871,1.96763
2550.57900,1.96817
2549.54930,1.96863
2548.51959,1.96863
2547.48989,1.96868
2546.46018,1.96891
2545.43048,1.96912
2544.40077,1.96924
2543.37107,1.96937
2542.34136,1.96943
2541.31166,1.96892
2540.28195,1.96773
2539.25225,1.96742
2538.22254,1.96895
2537.19284,1.97077
2536.16313,1.97113
2535.13343,1.97035
2534.10372,1.96971
2533.07402,1.96958
2532.04431,1.96976
2531.01461,1.97007
2529.98490,1.97067
2528.95520,1.97156
2527.92549,1.97205
2526.89579,1.97195
2525.86608,1.97198
2524.83638,1.97236
2523.80667,1.97228
2522.77697,1.97134
2521.74726,1.97045
2520.71756,1.97097
2519.68785,1.97330
2518.65815,1.97498
2517.62844,1.97379
2516.59874,1.97147
2515.56903,1.97053
2514.53933,1.97089
2513.50962,1.97148
2512.47992,1.97253
2511.45021,1.97346
2510.42051,1.97411
2509.39080,1.97518
2508.36110,1.97490
2507.33140,1.97290
2506.30169,1.97186
2505.27199,1.97189
2504.24228,1.97105
2503.21258,1.96971
2502.18287,1.96916
2501.15317,1.96932
2500.12346,1.96925
2499.09376,1.96894
2498.06405,1.96912
2497.03435,1.96937
2496.00464,1.96962
2494.97494,1.96992
2493.94523,1.96911
2492.91553,1.96734
2491.88582,1.96600
2490.85612,1.96535
2489.82641,1.96547
2488.79671,1.96560
2487.76700,1.96496
2486.73730,1.96448
2485.70759,1.96421
2484.67789,1.96292
2483.64818,1.96126
2482.61848,1.96009
2481.58877,1.95936
2480.55907,1.96020
2479.52936,1.96131
2478.49966,1.96068
2477.46995,1.96009
2476.44025,1.96053
2475.41054,1.96064
2474.38084,1.96030
2473.35113,1.95979
2472.32143,1.95867
2471.29172,1.95771
2470.26202,1.95756
2469.23231,1.95794
2468.20261,1.95861
2467.17290,1.95875
2466.14320,1.95830
2465.11349,1.95796
2464.08379,1.95759
2463.05409,1.95774
2462.02438,1.95834
2460.99468,1.95796
2459.96497,1.95666
2458.93527,1.95556
2457.90556,1.95552
2456.87586,1.95554
2455.84615,1.95432
2454.81645,1.95283
2453.78674,1.95263
2452.75704,1.95435
2451.72733,1.95634
2450.69763,1.95628
2449.66792,1.95468
2448.63822,1.95308
2447.60851,1.95247
2446.57881,1.95373
2445.54910,1.95571
2444.51940,1.95649
2443.48969,1.95591
2442.45999,1.95511
2441.43028,1.95458
2440.40058,1.95394
2439.37087,1.95404
2438.34117,1.95519
2437.31146,1.95592
2436.28176,1.95501
2435.25205,1.95325
2434.22235,1.95284
2433.19264,1.95385
2432.16294,1.95468
2431.13323,1.95483
2430.10353,1.95433
2429.07382,1.95363
2428.04412,1.95374
2427.01441,1.95398
2425.98471,1.95330
2424.95500,1.95296
2423.92530,1.95297
2422.89559,1.95179
2421.86589,1.95045
2420.83618,1.95089
2419.80648,1.95221
2418.77678,1.95201
2417.74707,1.95054
2416.71737,1.95040
2415.68766,1.95222
2414.65796,1.95328
2413.62825,1.95206
2412.59855,1.95075
2411.56884,1.95045
2410.53914,1.95043
2409.50943,1.95024
2408.47973,1.94931
2407.45002,1.94871
2406.42032,1.94945
2405.39061,1.95024
2404.36091,1.95033
2403.33120,1.95040
2402.30150,1.95055
2401.27179,1.95083
2400.24209,1.95078
2399.21238,1.94975
2398.18268,1.94839
2397.15297,1.94744
2396.12327,1.94715
2395.09356,1.94645
2394.06386,1.94541
2393.03415,1.94533
2392.00445,1.94531
2390.97474,1.94462
2389.94504,1.94491
2388.91533,1.94681
2387.88563,1.94807
2386.85592,1.94749
2385.82622,1.94622
2384.79651,1.94540
2383.76681,1.94538
2382.73710,1.94555
2381.70740,1.94526
2380.67769,1.94531
2379.64799,1.94633
2378.61828,1.94754
2377.58858,1.94793
2376.55887,1.94707
2375.52917,1.94540
2374.49946,1.94334
2373.46976,1.94189
2372.44006,1.94318
2371.41035,1.94701
2370.38065,1.94997
2369.35094,1.95057
2368.32124,1.95064
2367.29153,1.94969
2366.26183,1.94561
2365.23212,1.94168
2364.20242,1.94352
2363.17271,1.94750
2362.14301,1.94754
2361.11330,1.94719
2360.08360,1.94989
2359.05389,1.95204
2358.02419,1.95040
2356.99448,1.94848
2355.96478,1.94913
2354.93507,1.94773
2353.90537,1.94345
2352.87566,1.94250
2351.84596,1.94553
2350.81625,1.94689
2349.78655,1.94553
2348.75684,1.94463
2347.72714,1.94451
2346.69743,1.94444
2345.66773,1.94431
2344.63802,1.94273
2343.60832,1.94105
2342.57861,1.94173
2341.54891,1.94147
2340.51920,1.93843
2339.48950,1.93727
2338.45979,1.94070
2337.43009,1.94484
2336.40038,1.94492
2335.37068,1.94138
2334.34097,1.93837
2333.31127,1.93837
2332.28156,1.94129
2331.25186,1.94214
2330.22215,1.94042
2329.19245,1.94221
2328.16275,1.94487
2327.13304,1.94413
2326.10334,1.94215
2325.07363,1.94088
2324.04393,1.94061
2323.01422,1.94091
2321.98452,1.94105
2320.95481,1.94030
2319.92511,1.93819
2318.89540,1.93610
2317.86570,1.93560
2316.83599,1.93558
2315.80629,1.93449
2314.77658,1.93280
2313.74688,1.93202
2312.71717,1.93317
2311.68747,1.93442
2310.65776,1.93356
2309.62806,1.93190
2308.59835,1.93112
2307.56865,1.93117
2306.53894,1.93148
2305.50924,1.93154
2304.47953,1.93182
2303.44983,1.93276
2302.42012,1.93255
2301.39042,1.93052
2300.36071,1.92934
2299.33101,1.92989
2298.30130,1.93094
2297.27160,1.93130
2296.24189,1.93019
2295.21219,1.92900
2294.18248,1.92944
2293.15278,1.93022
2292.12307,1.92966
2291.09337,1.92890
2290.06366,1.92894
2289.03396,1.92871
2288.00425,1.92792
2286.97455,1.92754
2285.94484,1.92745
2284.91514,1.92713
2283.88544,1.92703
2282.85573,1.92754
2281.82603,1.92804
2280.79632,1.92807
2279.76662,1.92791
2278.73691,1.92738
2277.70721,1.92671
2276.67750,1.92642
2275.64780,1.92629
2274.61809,1.92646
2273.58839,1.92726
2272.55868,1.92871
2271.52898,1.92967
2270.49927,1.92852
2269.46957,1.92659
2268.43986,1.92607
2267.41016,1.92606
2266.38045,1.92589
2265.35075,1.92646
2264.32104,1.92726
2263.29134,1.92690
2262.26163,1.92608
2261.23193,1.92618
2260.20222,1.92623
2259.17252,1.92593
2258.14281,1.92639
2257.11311,1.92707
2256.08340,1.92654
2255.05370,1.92567
2254.02399,1.92633
2252.99429,1.92736
2251.96458,1.92645
2250.93488,1.92483
2249.90517,1.92436
2248.87547,1.92430
2247.84576,1.92413
2246.81606,1.92426
2245.78635,1.92420
2244.75665,1.92322
2243.72694,1.92284
2242.69724,1.92443
2241.66753,1.92568
2240.63783,1.92465
2239.60813,1.92328
2238.57842,1.92355
2237.54872,1.92464
2236.51901,1.92512
2235.48931,1.92523
2234.45960,1.92541
2233.42990,1.92503
2232.40019,1.92428
2231.37049,1.92386
2230.34078,1.92379
2229.31108,1.92432
2228.28137,1.92478
2227.25167,1.92438
2226.22196,1.92376
2225.19226,1.92370
2224.16255,1.92400
2223.13285,1.92428
2222.10314,1.92479
2221.07344,1.92509
2220.04373,1.92452
2219.01403,1.92406
2217.98432,1.92479
2216.95462,1.92570
2215.92491,1.92522
2214.89521,1.92330
2213.86550,1.92191
2212.83580,1.92259
2211.80609,1.92397
2210.77639,1.92457
2209.74668,1.92431
2208.71698,1.92389
2207.68727,1.92451
2206.65757,1.92533
2205.62786,1.92512
2204.59816,1.92441
2203.56845,1.92324
2202.53875,1.92179
2201.50904,1.92103
2200.47934,1.92118
2199.44963,1.92193
2198.41993,1.92268
2197.39022,1.92352
2196.36052,1.92481
2195.33081,1.92528
2194.30111,1.92512
2193.27141,1.92569
2192.24170,1.92555
2191.21200,1.92443
2190.18229,1.92385
2189.15259,1.92324
2188.12288,1.92255
2187.09318,1.92292
2186.06347,1.92411
2185.03377,1.92457
2184.00406,1.92382
2182.97436,1.92303
2181.94465,1.92244
2180.91495,1.92204
2179.88524,1.92225
2178.85554,1.92303
2177.82583,1.92398
2176.79613,1.92441
2175.76642,1.92447
2174.73672,1.92440
2173.70701,1.92410
2172.67731,1.92437
2171.64760,1.92504
2170.61790,1.92436
2169.58819,1.92278
2168.55849,1.92229
2167.52878,1.92327
2166.49908,1.92480
2165.46937,1.92565
2164.43967,1.92485
2163.40996,1.92330
2162.38026,1.92288
2161.35055,1.92278
2160.32085,1.92194
2159.29114,1.92194
2158.26144,1.92356
2157.23173,1.92507
2156.20203,1.92548
2155.17232,1.92522
2154.14262,1.92454
2153.11291,1.92404
2152.08321,1.92444
2151.05350,1.92532
2150.02380,1.92559
2148.99410,1.92538
2147.96439,1.92493
2146.93469,1.92424
2145.90498,1.92414
2144.87528,1.92466
2143.84557,1.92542
2142.81587,1.92666
2141.78616,1.92752
2140.75646,1.92703
2139.72675,1.92628
2138.69705,1.92625
2137.66734,1.92573
2136.63764,1.92415
2135.60793,1.92363
2134.57823,1.92432
2133.54852,1.92421
2132.51882,1.92388
2131.48911,1.92417
2130.45941,1.92432
2129.42970,1.92452
2128.40000,1.92494
2127.37029,1.92527
2126.34059,1.92520
2125.31088,1.92429
2124.28118,1.92326
2123.25147,1.92310
2122.22177,1.92378
2121.19206,1.92377
2120.16236,1.92278
2119.13265,1.92198
2118.10295,1.92164
2117.07324,1.92233
2116.04354,1.92313
2115.01383,1.92248
2113.98413,1.92124
2112.95442,1.92086
2111.92472,1.92079
2110.89501,1.92052
2109.86531,1.92071
2108.83560,1.92137
2107.80590,1.92200
2106.77619,1.92201
2105.74649,1.92095
2104.71679,1.91953
2103.68708,1.91933
2102.65738,1.92042
2101.62767,1.92118
2100.59797,1.92120
2099.56826,1.92084
2098.53856,1.91999
2097.50885,1.91929
2096.47915,1.91937
2095.44944,1.91969
2094.41974,1.91991
2093.39003,1.92019
2092.36033,1.92076
2091.33062,1.92116
2090.30092,1.92105
2089.27121,1.92085
2088.24151,1.92053
2087.21180,1.92027
2086.18210,1.92071
2085.15239,1.92138
2084.12269,1.92118
2083.09298,1.92060
2082.06328,1.92016
2081.03357,1.91973
2080.00387,1.92002
2078.97416,1.92075
2077.94446,1.92037
2076.91475,1.91917
2075.88505,1.91877
2074.85534,1.91975
2073.82564,1.92138
2072.79593,1.92216
2071.76623,1.92178
2070.73652,1.92111
2069.70682,1.92063
2068.67711,1.92057
2067.64741,1.92084
2066.61770,1.92075
2065.58800,1.91986
2064.55829,1.91932
2063.52859,1.91944
2062.49888,1.91878
2061.46918,1.91748
2060.43948,1.91705
2059.40977,1.91790
2058.38007,1.91891
2057.35036,1.91927
2056.32066,1.91969
2055.29095,1.92055
2054.26125,1.92109
2053.23154,1.92073
2052.20184,1.92003
2051.17213,1.91943
2050.14243,1.91907
2049.11272,1.91944
2048.08302,1.92020
2047.05331,1.92007
2046.02361,1.91898
2044.99390,1.91797
2043.96420,1.91782
2042.93449,1.91878
2041.90479,1.91959
2040.87508,1.91890
2039.84538,1.91791
2038.81567,1.91757
2037.78597,1.91742
2036.75626,1.91706
2035.72656,1.91587
2034.69685,1.91418
2033.66715,1.91388
2032.63744,1.91496
2031.60774,1.91555
2030.57803,1.91560
2029.54833,1.91566
2028.51862,1.91558
2027.48892,1.91518
2026.45921,1.91402
2025.42951,1.91287
2024.39980,1.91310
2023.37010,1.91432
2022.34039,1.91498
2021.31069,1.91470
2020.28098,1.91416
2019.25128,1.91361
2018.22157,1.91325
2017.19187,1.91277
2016.16216,1.91222
2015.13246,1.91219
2014.10276,1.91212
2013.07305,1.91185
2012.04335,1.91188
2011.01364,1.91142
2009.98394,1.91041
2008.95423,1.91001
2007.92453,1.91045
2006.89482,1.91121
2005.86512,1.91167
2004.83541,1.91196
2003.80571,1.91195
2002.77600,1.91139
2001.74630,1.91085
2000.71659,1.91038
1999.68689,1.90980
1998.65718,1.90944
1997.62748,1.90961
1996.59777,1.90962
1995.56807,1.90912
1994.53836,1.90899
1993.50866,1.90981
1992.47895,1.91094
1991.44925,1.91111
1990.41954,1.91044
1989.38984,1.90973
1988.36013,1.90962
1987.33043,1.91042
1986.30072,1.91119
1985.27102,1.91106
1984.24131,1.91065
1983.21161,1.91056
1982.18190,1.91040
1981.15220,1.91007
1980.12249,1.90963
1979.09279,1.90972
1978.06308,1.91089
1977.03338,1.91155
1976.00367,1.91126
1974.97397,1.91115
1973.94426,1.91088
1972.91456,1.91012
1971.88485,1.90954
1970.85515,1.90971
1969.82545,1.91027
1968.79574,1.91042
1967.76604,1.90943
1966.73633,1.90773
1965.70663,1.90722
1964.67692,1.90827
1963.64722,1.90933
1962.61751,1.90945
1961.58781,1.90970
1960.55810,1.91069
1959.52840,1.91120
1958.49869,1.91066
1957.46899,1.91009
1956.43928,1.90982
1955.40958,1.90926
1954.37987,1.90897
1953.35017,1.90959
1952.32046,1.90992
1951.29076,1.90977
1950.26105,1.90958
1949.23135,1.90893
1948.20164,1.90875
1947.17194,1.90911
1946.14223,1.90874
1945.11253,1.90847
1944.08282,1.90909
1943.05312,1.90932
1942.02341,1.90895
1940.99371,1.90890
1939.96400,1.90890
1938.93430,1.90900
1937.90459,1.90961
1936.87489,1.91017
1935.84518,1.91021
1934.81548,1.91049
1933.78577,1.91067
1932.75607,1.90970
1931.72636,1.90852
1930.69666,1.90801
1929.66695,1.90801
1928.63725,1.90838
1927.60754,1.90849
1926.57784,1.90820
1925.54814,1.90797
1924.51843,1.90765
1923.48873,1.90721
1922.45902,1.90758
1921.42932,1.90883
1920.39961,1.90927
1919.36991,1.90817
1918.34020,1.90641
1917.31050,1.90632
1916.28079,1.90774
1915.25109,1.90802
1914.22138,1.90766
1913.19168,1.90824
1912.16197,1.90867
1911.13227,1.90850
1910.10256,1.90872
1909.07286,1.90911
1908.04315,1.90926
1907.01345,1.90936
1905.98374,1.90930
1904.95404,1.90932
1903.92433,1.90936
1902.89463,1.90893
1901.86492,1.90870
1900.83522,1.90874
1899.80551,1.90846
1898.77581,1.90893
1897.74610,1.90982
1896.71640,1.91012
1895.68669,1.91014
1894.65699,1.91003
1893.62728,1.91054
1892.59758,1.91120
1891.56787,1.91031
1890.53817,1.90824
1889.50846,1.90792
1888.47876,1.91056
1887.44905,1.91268
1886.41935,1.91234
1885.38964,1.91096
1884.35994,1.91049
1883.33023,1.91065
1882.30053,1.91045
1881.27083,1.90971
1880.24112,1.90918
1879.21142,1.90967
1878.18171,1.91047
1877.15201,1.91105
1876.12230,1.91155
1875.09260,1.91174
1874.06289,1.91157
1873.03319,1.91146
1872.00348,1.91141
1870.97378,1.91099
1869.94407,1.91011
1868.91437,1.90908
1867.88466,1.90857
1866.85496,1.90913
1865.82525,1.91094
1864.79555,1.91265
1863.76584,1.91288
1862.73614,1.91224
1861.70643,1.91178
1860.67673,1.91175
1859.64702,1.91186
1858.61732,1.91229
1857.58761,1.91295
1856.55791,1.91308
1855.52820,1.91304
1854.49850,1.91380
1853.46879,1.91482
1852.43909,1.91559
1851.40938,1.91598
1850.37968,1.91523
1849.34997,1.91378
1848.32027,1.91298
1847.29056,1.91408
1846.26086,1.91580
1845.23115,1.91527
1844.20145,1.91293
1843.17174,1.91324
1842.14204,1.91535
1841.11233,1.91719
1840.08263,1.91798
1839.05292,1.91732
1838.02322,1.91636
1836.99351,1.91600
1835.96381,1.91672
1834.93411,1.91777
1833.90440,1.91790
1832.87470,1.91811
1831.84499,1.91911
1830.81529,1.91988
1829.78558,1.91933
1828.75588,1.91908
1827.72617,1.92063
1826.69647,1.92245
1825.66676,1.92326
1824.63706,1.92334
1823.60735,1.92350
1822.57765,1.92362
1821.54794,1.92430
1820.51824,1.92527
1819.48853,1.92580
1818.45883,1.92629
1817.42912,1.92705
1816.39942,1.92776
1815.36971,1.92798
1814.34001,1.92846
1813.31030,1.92955
1812.28060,1.92967
1811.25089,1.92875
1810.22119,1.92941
1809.19148,1.93192
1808.16178,1.93416
1807.13207,1.93563
1806.10237,1.93631
1805.07266,1.93654
1804.04296,1.93764
1803.01325,1.94005
1801.98355,1.94334
1800.95384,1.94587
1799.92414,1.94632
1798.89443,1.94669
1797.86473,1.94864
1796.83502,1.95057
1795.80532,1.95121
1794.77561,1.95143
1793.74591,1.95185
1792.71620,1.95161
1791.68650,1.95107
1790.65680,1.95128
1789.62709,1.95142
1788.59739,1.95195
1787.56768,1.95303
1786.53798,1.95271
1785.50827,1.95090
1784.47857,1.95072
1783.44886,1.95203
1782.41916,1.95227
1781.38945,1.95218
1780.35975,1.95314
1779.33004,1.95423
1778.30034,1.95470
1777.27063,1.95571
1776.24093,1.95709
1775.21122,1.95819
1774.18152,1.95951
1773.15181,1.95913
1772.12211,1.95632
1771.09240,1.95701
1770.06270,1.96019
1769.03299,1.96169
1768.00329,1.96089
1766.97358,1.96108
1765.94388,1.96208
1764.91417,1.96158
1763.88447,1.96157
1762.85476,1.96302
1761.82506,1.96230
1760.79535,1.96034
1759.76565,1.96151
1758.73594,1.96322
1757.70624,1.96272
1756.67653,1.96174
1755.64683,1.96424
1754.61712,1.96762
1753.58742,1.96886
1752.55771,1.96878
1751.52801,1.96847
1750.49830,1.96916
1749.46860,1.97003
1748.43889,1.96962
1747.40919,1.97054
1746.37949,1.97242
1745.34978,1.97273
1744.32008,1.97105
1743.29037,1.96821
1742.26067,1.96792
1741.23096,1.96927
1740.20126,1.96762
1739.17155,1.96550
1738.14185,1.96687
1737.11214,1.96687
1736.08244,1.96582
1735.05273,1.96550
1734.02303,1.96183
1732.99332,1.95717
1731.96362,1.95703
1730.93391,1.95647
1729.90421,1.95334
1728.87450,1.95145
1727.84480,1.95178
1726.81509,1.95169
1725.78539,1.95085
1724.75568,1.94951
1723.72598,1.94812
1722.69627,1.94716
1721.66657,1.94644
1720.63686,1.94620
1719.60716,1.94632
1718.57745,1.94513
1717.54775,1.94176
1716.51804,1.94076
1715.48834,1.94145
1714.45863,1.94076
1713.42893,1.93814
1712.39922,1.93534
1711.36952,1.93268
1710.33981,1.92995
1709.31011,1.92861
1708.28040,1.92890
1707.25070,1.92839
1706.22099,1.92645
1705.19129,1.92440
1704.16158,1.92262
1703.13188,1.92159
1702.10218,1.92053
1701.07247,1.91669
1700.04277,1.90990
1699.01306,1.91185
1697.98336,1.91472
1696.95365,1.91501
1695.92395,1.91119
1694.89424,1.90875
1693.86454,1.90993
1692.83483,1.91032
1691.80513,1.90997
1690.77542,1.90977
1689.74572,1.91014
1688.71601,1.91150
1687.68631,1.91277
1686.65660,1.91336
1685.62690,1.91391
1684.59719,1.91218
1683.56749,1.90696
1682.53778,1.90754
1681.50808,1.90995
1680.47837,1.91080
1679.44867,1.91021
1678.41896,1.91134
1677.38926,1.91366
1676.35955,1.91515
1675.32985,1.91448
1674.30014,1.91342
1673.27044,1.91372
1672.24073,1.91336
1671.21103,1.91299
1670.18132,1.91319
1669.15162,1.91117
1668.12191,1.90987
1667.09221,1.91095
1666.06250,1.91109
1665.03280,1.91029
1664.00309,1.91001
1662.97339,1.91028
1661.94368,1.91124
1660.91398,1.91268
1659.88427,1.91341
1658.85457,1.91314
1657.82486,1.91223
1656.79516,1.91236
1655.76546,1.91411
1654.73575,1.91554
1653.70605,1.91644
1652.67634,1.91606
1651.64664,1.91343
1650.61693,1.91221
1649.58723,1.91181
1648.55752,1.91203
1647.52782,1.91349
1646.49811,1.91264
1645.46841,1.90910
1644.43870,1.90808
1643.40900,1.90797
1642.37929,1.90817
1641.34959,1.90910
1640.31988,1.90909
1639.29018,1.90829
1638.26047,1.90864
1637.23077,1.90999
1636.20106,1.91072
1635.17136,1.90864
1634.14165,1.90614
1633.11195,1.90552
1632.08224,1.90616
1631.05254,1.90697
1630.02283,1.90650
1628.99313,1.90541
1627.96342,1.90445
1626.93372,1.90405
1625.90401,1.90440
1624.87431,1.90440
1623.84460,1.90298
1622.81490,1.90081
1621.78519,1.90041
1620.75549,1.90132
1619.72578,1.90246
1618.69608,1.90347
1617.66637,1.90434
1616.63667,1.90373
1615.60696,1.90209
1614.57726,1.90113
1613.54755,1.90075
1612.51785,1.90109
1611.48815,1.90210
1610.45844,1.90303
1609.42874,1.90178
1608.39903,1.89968
1607.36933,1.89955
1606.33962,1.90081
1605.30992,1.90180
1604.28021,1.90168
1603.25051,1.90160
1602.22080,1.90265
1601.19110,1.90272
1600.16139,1.90078
1599.13169,1.89950
1598.10198,1.89988
1597.07228,1.89983
1596.04257,1.89943
1595.01287,1.90006
1593.98316,1.90056
1592.95346,1.90052
1591.92375,1.90046
1590.89405,1.90005
1589.86434,1.89993
1588.83464,1.90046
1587.80493,1.90112
1586.77523,1.90145
1585.74552,1.90110
1584.71582,1.90103
1583.68611,1.90125
1582.65641,1.90024
1581.62670,1.89875
1580.59700,1.89846
1579.56729,1.89948
1578.53759,1.90142
1577.50788,1.90350
1576.47818,1.90393
1575.44847,1.90286
1574.41877,1.90314
1573.38906,1.90322
1572.35936,1.90260
1571.32965,1.90211
1570.29995,1.90161
1569.27024,1.90076
1568.24054,1.90113
1567.21084,1.90177
1566.18113,1.90135
1565.15143,1.89993
1564.12172,1.89944
1563.09202,1.90043
1562.06231,1.90134
1561.03261,1.90236
1560.00290,1.90572
1558.97320,1.91222
1557.94349,1.90713
1556.91379,1.90224
1555.88408,1.90153
1554.85438,1.90015
1553.82467,1.89700
1552.79497,1.89596
1551.76526,1.89629
1550.73556,1.89625
1549.70585,1.89451
1548.67615,1.89161
1547.64644,1.88960
1546.61674,1.88889
1545.58703,1.88898
1544.55733,1.88903
1543.52762,1.88899
1542.49792,1.88785
1541.46821,1.88871
1540.43851,1.89562
1539.40880,1.89725
1538.37910,1.88826
1537.34939,1.88539
1536.31969,1.88676
1535.28998,1.88960
1534.26028,1.89320
1533.23057,1.89602
1532.20087,1.89701
1531.17116,1.89897
1530.14146,1.90132
1529.11175,1.90289
1528.08205,1.90385
1527.05234,1.90424
1526.02264,1.90446
1524.99293,1.90554
1523.96323,1.90793
1522.93353,1.91135
1521.90382,1.91310
1520.87412,1.90936
1519.84441,1.90828
1518.81471,1.91083
1517.78500,1.91189
1516.75530,1.90998
1515.72559,1.91090
1514.69589,1.91330
1513.66618,1.91408
1512.63648,1.91345
1511.60677,1.91343
1510.57707,1.91490
1509.54736,1.91704
1508.51766,1.92058
1507.48795,1.92755
1506.45825,1.93528
1505.42854,1.92941
1504.39884,1.92311
1503.36913,1.92081
1502.33943,1.91981
1501.30972,1.91909
1500.28002,1.92002
1499.25031,1.92253
1498.22061,1.92613
1497.19090,1.92904
1496.16120,1.92799
1495.13149,1.92549
1494.10179,1.92510
1493.07208,1.92543
1492.04238,1.92644
1491.01267,1.92886
1489.98297,1.93277
1488.95326,1.93607
1487.92356,1.93687
1486.89385,1.93536
1485.86415,1.93521
1484.83444,1.93750
1483.80474,1.93925
1482.77503,1.94028
1481.74533,1.94286
1480.71562,1.94666
1479.68592,1.94941
1478.65621,1.95097
1477.62651,1.95281
1476.59681,1.95564
1475.56710,1.95948
1474.53740,1.96363
1473.50769,1.96630
1472.47799,1.96157
1471.44828,1.95061
1470.41858,1.94208
1469.38887,1.93324
1468.35917,1.92215
1467.32946,1.91103
1466.29976,1.90199
1465.27005,1.89430
1464.24035,1.88870
1463.21064,1.88759
1462.18094,1.88780
1461.15123,1.88879
1460.12153,1.89124
1459.09182,1.89264
1458.06212,1.89210
1457.03241,1.89324
1456.00271,1.89378
1454.97300,1.89345
1453.94330,1.89408
1452.91359,1.89480
1451.88389,1.89459
1450.85418,1.89361
1449.82448,1.89359
1448.79477,1.89424
1447.76507,1.89346
1446.73536,1.89210
1445.70566,1.89110
1444.67595,1.88963
1443.64625,1.88790
1442.61654,1.88674
1441.58684,1.88734
1440.55713,1.88858
1439.52743,1.88845
1438.49772,1.88825
1437.46802,1.88917
1436.43831,1.88954
1435.40861,1.88879
1434.37890,1.88832
1433.34920,1.88799
1432.31950,1.88789
1431.28979,1.88826
1430.26009,1.88887
1429.23038,1.88866
1428.20068,1.88774
1427.17097,1.88720
1426.14127,1.88788
1425.11156,1.88934
1424.08186,1.88992
1423.05215,1.88996
1422.02245,1.89106
1420.99274,1.89316
1419.96304,1.89551
1418.93333,1.89617
1417.90363,1.89556
1416.87392,1.89491
1415.84422,1.89361
1414.81451,1.89284
1413.78481,1.89355
1412.75510,1.89461
1411.72540,1.89458
1410.69569,1.89338
1409.66599,1.89199
1408.63628,1.89197
1407.60658,1.89298
1406.57687,1.89353
1405.54717,1.89383
1404.51746,1.89462
1403.48776,1.89512
1402.45805,1.89456
1401.42835,1.89422
1400.39864,1.89520
1399.36894,1.89620
1398.33923,1.89551
1397.30953,1.89519
1396.27982,1.89609
1395.25012,1.89600
1394.22041,1.89542
1393.19071,1.89636
1392.16100,1.89728
1391.13130,1.89771
1390.10159,1.89805
1389.07189,1.89791
1388.04219,1.89728
1387.01248,1.89723
1385.98278,1.89786
1384.95307,1.89761
1383.92337,1.89714
1382.89366,1.89759
1381.86396,1.89752
1380.83425,1.89585
1379.80455,1.89359
1378.77484,1.89212
1377.74514,1.89129
1376.71543,1.89005
1375.68573,1.88861
1374.65602,1.88704
1373.62632,1.88526
1372.59661,1.88452
1371.56691,1.88487
1370.53720,1.88558
1369.50750,1.88511
1368.47779,1.88254
1367.44809,1.88093
1366.41838,1.88141
1365.38868,1.88246
1364.35897,1.88316
1363.32927,1.88308
1362.29956,1.88330
1361.26986,1.88337
1360.24015,1.88239
1359.21045,1.88214
1358.18074,1.88302
1357.15104,1.88310
1356.12133,1.88141
1355.09163,1.87945
1354.06192,1.87910
1353.03222,1.88045
1352.00251,1.88237
1350.97281,1.88354
1349.94310,1.88352
1348.91340,1.88349
1347.88369,1.88383
1346.85399,1.88403
1345.82428,1.88402
1344.79458,1.88357
1343.76488,1.88317
1342.73517,1.88319
1341.70547,1.88307
1340.67576,1.88245
1339.64606,1.88150
1338.61635,1.88162
1337.58665,1.88268
1336.55694,1.88331
1335.52724,1.88340
1334.49753,1.88347
1333.46783,1.88412
1332.43812,1.88514
1331.40842,1.88559
1330.37871,1.88561
1329.34901,1.88643
1328.31930,1.88721
1327.28960,1.88668
1326.25989,1.88633
1325.23019,1.88663
1324.20048,1.88685
1323.17078,1.88733
1322.14107,1.88735
1321.11137,1.88599
1320.08166,1.88487
1319.05196,1.88506
1318.02225,1.88486
1316.99255,1.88374
1315.96284,1.88327
1314.93314,1.88338
1313.90343,1.88320
1312.87373,1.88354
1311.84402,1.88437
1310.81432,1.88491
1309.78461,1.88516
1308.75491,1.88446
1307.72520,1.88319
1306.69550,1.88313
1305.66579,1.88418
1304.63609,1.88494
1303.60638,1.88532
1302.57668,1.88554
1301.54697,1.88529
1300.51727,1.88508
1299.48756,1.88548
1298.45786,1.88604
1297.42816,1.88653
1296.39845,1.88736
1295.36875,1.88771
1294.33904,1.88693
1293.30934,1.88710
1292.27963,1.88903
1291.24993,1.89033
1290.22022,1.88968
1289.19052,1.88806
1288.16081,1.88695
1287.13111,1.88695
1286.10140,1.88733
1285.07170,1.88732
1284.04199,1.88701
1283.01229,1.88660
1281.98258,1.88629
1280.95288,1.88596
1279.92317,1.88595
1278.89347,1.88693
1277.86376,1.88728
1276.83406,1.88656
1275.80435,1.88641
1274.77465,1.88647
1273.74494,1.88643
1272.71524,1.88705
1271.68553,1.88823
1270.65583,1.88873
1269.62612,1.88738
1268.59642,1.88587
1267.56671,1.88593
1266.53701,1.88618
1265.50730,1.88583
1264.47760,1.88568
1263.44789,1.88552
1262.41819,1.88517
1261.38848,1.88506
1260.35878,1.88486
1259.32907,1.88433
1258.29937,1.88382
1257.26966,1.88322
1256.23996,1.88279
1255.21025,1.88248
1254.18055,1.88159
1253.15085,1.88129
1252.12114,1.88205
1251.09144,1.88216
1250.06173,1.88185
1249.03203,1.88151
1248.00232,1.88043
1246.97262,1.87945
1245.94291,1.87917
1244.91321,1.87905
1243.88350,1.87924
1242.85380,1.87966
1241.82409,1.88019
1240.79439,1.88163
1239.76468,1.88281
1238.73498,1.88223
1237.70527,1.88113
1236.67557,1.88028
1235.64586,1.87949
1234.61616,1.87934
1233.58645,1.87966
1232.55675,1.87931
1231.52704,1.87848
1230.49734,1.87900
1229.46763,1.88053
1228.43793,1.88067
1227.40822,1.87945
1226.37852,1.87860
1225.34881,1.87925
1224.31911,1.88032
1223.28940,1.87960
1222.25970,1.87792
1221.22999,1.87779
1220.20029,1.87942
1219.17058,1.88064
1218.14088,1.88003
1217.11117,1.87868
1216.08147,1.87800
1215.05176,1.87835
1214.02206,1.87906
1212.99235,1.87988
1211.96265,1.88102
1210.93294,1.88157
1209.90324,1.88101
1208.87354,1.88006
1207.84383,1.88016
1206.81413,1.88189
1205.78442,1.88333
1204.75472,1.88297
1203.72501,1.88176
1202.69531,1.88155
1201.66560,1.88229
1200.63590,1.88246
1199.60619,1.88225
1198.57649,1.88160
1197.54678,1.88036
1196.51708,1.87992
1195.48737,1.88028
1194.45767,1.88039
1193.42796,1.88014
1192.39826,1.87927
1191.36855,1.87848
1190.33885,1.87870
1189.30914,1.87869
1188.27944,1.87808
1187.24973,1.87839
1186.22003,1.87939
1185.19032,1.87894
1184.16062,1.87765
1183.13091,1.87788
1182.10121,1.87896
1181.07150,1.87914
1180.04180,1.87831
1179.01209,1.87772
1177.98239,1.87801
1176.95268,1.87823
1175.92298,1.87789
1174.89327,1.87786
1173.86357,1.87827
1172.83386,1.87848
1171.80416,1.87821
1170.77445,1.87720
1169.74475,1.87566
1168.71504,1.87437
1167.68534,1.87407
1166.65563,1.87436
1165.62593,1.87396
1164.59623,1.87286
1163.56652,1.87310
1162.53682,1.87418
1161.50711,1.87394
1160.47741,1.87306
1159.44770,1.87266
1158.41800,1.87333
1157.38829,1.87399
1156.35859,1.87287
1155.32888,1.87150
1154.29918,1.87187
1153.26947,1.87255
1152.23977,1.87228
1151.21006,1.87280
1150.18036,1.87404
1149.15065,1.87415
1148.12095,1.87368
1147.09124,1.87356
1146.06154,1.87382
1145.03183,1.87436
1144.00213,1.87441
1142.97242,1.87354
1141.94272,1.87231
1140.91301,1.87177
1139.88331,1.87229
1138.85360,1.87241
1137.82390,1.87105
1136.79419,1.86915
1135.76449,1.86773
1134.73478,1.86680
1133.70508,1.86584
1132.67537,1.86486
1131.64567,1.86424
1130.61596,1.86342
1129.58626,1.86177
1128.55655,1.85963
1127.52685,1.85774
1126.49714,1.85740
1125.46744,1.85835
1124.43773,1.85820
1123.40803,1.85658
1122.37832,1.85457
1121.34862,1.85263
1120.31891,1.85121
1119.28921,1.85005
1118.25951,1.84902
1117.22980,1.84800
1116.20010,1.84706
1115.17039,1.84670
1114.14069,1.84606
1113.11098,1.84452
1112.08128,1.84275
1111.05157,1.84173
1110.02187,1.84153
1108.99216,1.84103
1107.96246,1.84025
1106.93275,1.83988
1105.90305,1.83975
1104.87334,1.83914
1103.84364,1.83785
1102.81393,1.83611
1101.78423,1.83431
1100.75452,1.83340
1099.72482,1.83303
1098.69511,1.83179
1097.66541,1.82994
1096.63570,1.82894
1095.60600,1.82865
1094.57629,1.82748
1093.54659,1.82563
1092.51688,1.82449
1091.48718,1.82355
1090.45747,1.82174
1089.42777,1.81985
1088.39806,1.81852
1087.36836,1.81712
1086.33865,1.81611
1085.30895,1.81630
1084.27924,1.81627
1083.24954,1.81542
1082.21983,1.81474
1081.19013,1.81441
1080.16042,1.81471
1079.13072,1.81577
1078.10101,1.81583
1077.07131,1.81390
1076.04160,1.81180
1075.01190,1.81083
1073.98220,1.81092
1072.95249,1.81143
1071.92279,1.81151
1070.89308,1.81137
1069.86338,1.81146
1068.83367,1.81189
1067.80397,1.81256
1066.77426,1.81285
1065.74456,1.81254
1064.71485,1.81225
1063.68515,1.81229
1062.65544,1.81277
1061.62574,1.81317
1060.59603,1.81269
1059.56633,1.81227
1058.53662,1.81256
1057.50692,1.81260
1056.47721,1.81207
1055.44751,1.81184
1054.41780,1.81190
1053.38810,1.81160
1052.35839,1.81150
1051.32869,1.81220
1050.29898,1.81322
1049.26928,1.81286
1048.23957,1.81083
1047.20987,1.80918
1046.18016,1.80894
1045.15046,1.80972
1044.12075,1.80987
1043.09105,1.80854
1042.06134,1.80777
1041.03164,1.80847
1040.00193,1.80842
1038.97223,1.80618
1037.94252,1.80330
1036.91282,1.80156
1035.88311,1.80115
1034.85341,1.80100
1033.82370,1.79971
1032.79400,1.79854
1031.76429,1.79895
1030.73459,1.79942
1029.70489,1.79901
1028.67518,1.79913
1027.64548,1.79942
1026.61577,1.79855
1025.58607,1.79755
1024.55636,1.79635
1023.52666,1.79467
1022.49695,1.79383
1021.46725,1.79398
1020.43754,1.79436
1019.40784,1.79460
1018.37813,1.79470
1017.34843,1.79527
1016.31872,1.79600
1015.28902,1.79569
1014.25931,1.79499
1013.22961,1.79477
1012.19990,1.79447
1011.17020,1.79437
1010.14049,1.79498
1009.11079,1.79525
1008.08108,1.79433
1007.05138,1.79352
1006.02167,1.79406
1004.99197,1.79516
1003.96226,1.79637
1002.93256,1.79736
1001.90285,1.79676
1000.87315,1.79543
999.84344,1.79502
998.81374,1.79487
997.78403,1.79409
996.75433,1.79332
995.72462,1.79382
994.69492,1.79550
993.66521,1.79750
992.63551,1.79835
991.60580,1.79715
990.57610,1.79588
989.54639,1.79596
988.51669,1.79692
987.48698,1.79825
986.45728,1.79912
985.42758,1.79990
984.39787,1.80098
983.36817,1.80176
982.33846,1.80266
981.30876,1.80406
980.27905,1.80456
979.24935,1.80348
978.21964,1.80194
977.18994,1.80092
976.16023,1.80111
975.13053,1.80228
974.10082,1.80330
973.07112,1.80337
972.04141,1.80236
971.01171,1.80170
969.98200,1.80270
968.95230,1.80461
967.92259,1.80558
966.89289,1.80504
965.86318,1.80449
964.83348,1.80465
963.80377,1.80492
962.77407,1.80421
961.74436,1.80266
960.71466,1.80195
959.68495,1.80181
958.65525,1.80150
957.62554,1.80123
956.59584,1.80018
955.56613,1.79836
954.53643,1.79765
953.50672,1.79793
952.47702,1.79721
951.44731,1.79544
950.41761,1.79397
949.38790,1.79397
948.35820,1.79512
947.32849,1.79599
946.29879,1.79616
945.26908,1.79630
944.23938,1.79600
943.20967,1.79520
942.17997,1.79516
941.15026,1.79560
940.12056,1.79576
939.09086,1.79488
938.06115,1.79305
937.03145,1.79244
936.00174,1.79307
934.97204,1.79353
933.94233,1.79387
932.91263,1.79403
931.88292,1.79409
930.85322,1.79415
929.82351,1.79418
928.79381,1.79470
927.76410,1.79433
926.73440,1.79281
925.70469,1.79261
924.67499,1.79361
923.64528,1.79378
922.61558,1.79268
921.58587,1.79147
920.55617,1.79163
919.52646,1.79285
918.49676,1.79392
917.46705,1.79448
916.43735,1.79414
915.40764,1.79281
914.37794,1.79205
913.34823,1.79349
912.31853,1.79488
911.28882,1.79396
910.25912,1.79263
909.22941,1.79233
908.19971,1.79219
907.17000,1.79175
906.14030,1.79200
905.11059,1.79293
904.08089,1.79372
903.05118,1.79393
902.02148,1.79288
900.99177,1.79178
899.96207,1.79107
898.93236,1.79020
897.90266,1.79066
896.87295,1.79194
895.84325,1.79277
894.81355,1.79384
893.78384,1.79439
892.75414,1.79370
891.72443,1.79210
890.69473,1.79054
889.66502,1.79007
888.63532,1.79048
887.60561,1.79130
886.57591,1.79148
885.54620,1.79033
884.51650,1.78976
883.48679,1.79091
882.45709,1.79170
881.42738,1.79075
880.39768,1.79019
879.36797,1.79121
878.33827,1.79200
877.30856,1.79138
876.27886,1.79042
875.24915,1.78958
874.21945,1.78832
873.18974,1.78852
872.16004,1.79097
871.13033,1.79311
870.10063,1.79293
869.07092,1.79094
868.04122,1.78900
867.01151,1.78794
865.98181,1.78703
864.95210,1.78566
863.92240,1.78538
862.89269,1.78674
861.86299,1.78726
860.83328,1.78637
859.80358,1.78608
858.77387,1.78712
857.74417,1.78784
856.71446,1.78693
855.68476,1.78522
854.65505,1.78486
853.62535,1.78661
852.59564,1.78855
851.56594,1.78842
850.53624,1.78670
849.50653,1.78601
848.47683,1.78731
847.44712,1.78924
846.41742,1.78936
845.38771,1.78700
844.35801,1.78540
843.32830,1.78613
842.29860,1.78613
841.26889,1.78628
840.23919,1.78757
839.20948,1.78698
838.17978,1.78509
837.15007,1.78256
836.12037,1.78084
835.09066,1.78226
834.06096,1.78500
833.03125,1.78525
832.00155,1.78204
830.97184,1.78055
829.94214,1.78344
828.91243,1.78584
827.88273,1.78520
826.85302,1.78420
825.82332,1.78436
824.79361,1.78404
823.76391,1.78219
822.73420,1.78123
821.70450,1.78179
820.67479,1.78158
819.64509,1.78175
818.61538,1.78358
817.58568,1.78489
816.55597,1.78457
815.52627,1.78307
814.49656,1.78164
813.46686,1.78071
812.43715,1.77989
811.40745,1.78055
810.37774,1.78119
809.34804,1.77961
808.31833,1.77936
807.28863,1.78094
806.25893,1.78026
805.22922,1.77893
804.19952,1.77961
803.16981,1.78089
802.14011,1.78172
801.11040,1.78150
800.08070,1.78091
799.05099,1.78111
798.02129,1.78136
796.99158,1.78080
795.96188,1.77946
794.93217,1.77892
793.90247,1.77985
792.87276,1.78053
791.84306,1.78120
790.81335,1.78208
789.78365,1.78277
788.75394,1.78371
787.72424,1.78445
786.69453,1.78586
785.66483,1.78672
784.63512,1.78574
783.60542,1.78535
782.57571,1.78616
781.54601,1.78754
780.51630,1.78793
779.48660,1.78517
778.45689,1.78229
777.42719,1.78362
776.39748,1.78719
775.36778,1.78880
774.33807,1.78734
773.30837,1.78479
772.27866,1.78321
771.24896,1.78310
770.21925,1.78409
769.18955,1.78454
768.15984,1.78419
767.13014,1.78509
766.10043,1.78754
765.07073,1.78856
764.04102,1.78766
763.01132,1.78778
761.98161,1.78936
760.95191,1.78981
759.92221,1.78826
758.89250,1.78700
757.86280,1.78664
756.83309,1.78706
755.80339,1.78791
754.77368,1.78739
753.74398,1.78608
752.71427,1.78608
751.68457,1.78736
750.65486,1.78670
749.62516,1.78424
748.59545,1.78491
747.56575,1.78871
746.53604,1.79068
745.50634,1.78965
744.47663,1.78868
743.44693,1.78871
742.41722,1.79041
741.38752,1.79466
740.35781,1.79629
739.32811,1.79245
738.29840,1.78933
737.26870,1.78897
736.23899,1.78856
735.20929,1.78973
734.17958,1.79328
733.14988,1.79654
732.12017,1.79846
731.09047,1.79924
730.06076,1.79891
729.03106,1.79595
728.00135,1.79082
726.97165,1.78819
725.94194,1.78863
724.91224,1.78853
723.88253,1.78427
722.85283,1.77427
721.82312,1.76457
720.79342,1.75857
719.76371,1.75209
718.73401,1.74692
717.70430,1.74680
716.67460,1.75083
715.64490,1.75598
714.61519,1.75933
713.58549,1.76072
712.55578,1.76168
711.52608,1.76378
710.49637,1.76585
709.46667,1.76587
708.43696,1.76581
707.40726,1.76645
706.37755,1.76556
705.34785,1.76608
704.31814,1.76955
703.28844,1.76996
702.25873,1.76679
701.22903,1.76444
700.19932,1.76495
699.16962,1.76690
698.13991,1.76744
697.11021,1.76900
696.08050,1.76980
695.05080,1.76498
694.02109,1.76175
692.99139,1.76360
691.96168,1.76542
690.93198,1.76737
689.90227,1.76966
688.87257,1.77191
687.84286,1.77289
686.81316,1.77036
685.78345,1.76772
684.75375,1.76609
683.72404,1.76409
682.69434,1.76570
681.66463,1.77110
680.63493,1.77404
679.60522,1.77482
678.57552,1.77620
677.54581,1.77532
676.51611,1.77276
675.48640,1.77252
674.45670,1.77556
673.42699,1.77802
672.39729,1.77524
671.36759,1.76955
670.33788,1.76676
669.30818,1.76863
668.27847,1.77237
667.24877,1.77337
666.21906,1.77245
665.18936,1.76997
664.15965,1.76566
663.12995,1.76055
662.10024,1.75512
661.07054,1.75416
660.04083,1.76135
659.01113,1.76771
657.98142,1.76696
656.95172,1.76380
655.92201,1.76033
654.89231,1.75865
653.86260,1.75811
652.83290,1.75584
651.80319,1.75552
650.77349,1.75783
649.74378,1.75714
648.71408,1.75397
647.68437,1.75160
646.65467,1.74908
645.62496,1.74582
644.59526,1.74494
643.56555,1.74863
642.53585,1.75203
641.50614,1.75185
640.47644,1.75148
639.44673,1.75497
638.41703,1.76218
637.38732,1.76618
636.35762,1.76225
635.32791,1.75500
634.29821,1.75031
633.26850,1.74821
632.23880,1.74656
631.20909,1.74811
630.17939,1.75081
629.14968,1.74821
628.11998,1.74620
627.09028,1.75177
626.06057,1.75604
625.03087,1.75046
624.00116,1.74520
622.97146,1.74472
621.94175,1.74545
620.91205,1.74835
619.88234,1.75269
618.85264,1.75672
617.82293,1.75467
616.79323,1.74445
615.76352,1.73657
614.73382,1.73859
613.70411,1.74218
612.67441,1.74263
611.64470,1.74584
610.61500,1.74705
609.58529,1.74612
608.55559,1.75159
607.52588,1.75834
606.49618,1.75220
605.46647,1.73925
604.43677,1.73567
603.40706,1.73913
602.37736,1.74561
601.34765,1.75394
600.31795,1.75768
599.28824,1.75604
