5998.03096,1.63215
5997.00125,1.62410
5995.97155,1.61886
5994.94184,1.61447
5993.91214,1.61379
5992.88243,1.61165
5991.85273,1.60550
5990.82302,1.60575
5989.79332,1.61520
5988.76361,1.62132
5987.73391,1.61930
5986.70420,1.62028
5985.67450,1.62012
5984.64479,1.61470
5983.61509,1.61480
5982.58538,1.61388
5981.55568,1.61201
5980.52597,1.61423
5979.49627,1.61816
5978.46656,1.62889
5977.43686,1.63973
5976.40715,1.64132
5975.37745,1.64090
5974.34774,1.64032
5973.31804,1.63538
5972.28833,1.62970
5971.25863,1.63218
5970.22892,1.63986
5969.19922,1.64492
5968.16951,1.64314
5967.13981,1.63287
5966.11010,1.62217
5965.08040,1.61704
5964.05069,1.62202
5963.02099,1.63448
5961.99128,1.63715
5960.96158,1.62748
5959.93187,1.62140
5958.90217,1.62379
5957.87247,1.62537
5956.84276,1.62476
5955.81306,1.63164
5954.78335,1.64147
5953.75365,1.63979
5952.72394,1.62961
5951.69424,1.62324
5950.66453,1.61973
5949.63483,1.62073
5948.60512,1.63081
5947.57542,1.63727
5946.54571,1.63515
5945.51601,1.63609
5944.48630,1.63960
5943.45660,1.64028
5942.42689,1.63887
5941.39719,1.63645
5940.36748,1.63472
5939.33778,1.63106
5938.30807,1.62603
5937.27837,1.62635
5936.24866,1.63046
5935.21896,1.63560
5934.18925,1.64006
5933.15955,1.64109
5932.12984,1.64188
5931.10014,1.64263
5930.07043,1.63978
5929.04073,1.63828
5928.01102,1.64027
5926.98132,1.63821
5925.95161,1.63539
5924.92191,1.64031
5923.89220,1.64512
5922.86250,1.64155
5921.83279,1.64092
5920.80309,1.65110
5919.77338,1.65815
5918.74368,1.65534
5917.71397,1.65066
5916.68427,1.64638
5915.65456,1.64422
5914.62486,1.64907
5913.59515,1.65818
5912.56545,1.65834
5911.53575,1.64652
5910.50604,1.63652
5909.47634,1.63809
5908.44663,1.64849
5907.41693,1.65712
5906.38722,1.65657
5905.35752,1.65094
5904.32781,1.64901
5903.29811,1.65171
5902.26840,1.65438
5901.23870,1.65758
5900.20899,1.66394
5899.17929,1.67041
5898.14958,1.66858
5897.11988,1.65897
5896.09017,1.65389
5895.06047,1.65517
5894.03076,1.65247
5893.00106,1.64743
5891.97135,1.65024
5890.94165,1.65578
5889.91194,1.65923
5888.88224,1.66202
5887.85253,1.66114
5886.82283,1.65905
5885.79312,1.65607
5884.76342,1.65241
5883.73371,1.65158
5882.70401,1.65308
5881.67430,1.65680
5880.64460,1.65781
5879.61489,1.65974
5878.58519,1.66950
5877.55548,1.67353
5876.52578,1.66560
5875.49607,1.65882
5874.46637,1.65951
5873.43666,1.66564
5872.40696,1.67074
5871.37725,1.67035
5870.34755,1.66968
5869.31784,1.67052
5868.28814,1.66632
5867.25844,1.66195
5866.22873,1.66458
5865.19903,1.66756
5864.16932,1.66693
5863.13962,1.66673
5862.10991,1.66515
5861.08021,1.66114
5860.05050,1.66222
5859.02080,1.66661
5857.99109,1.66384
5856.96139,1.65937
5855.93168,1.66644
5854.90198,1.67843
5853.87227,1.68014
5852.84257,1.67614
5851.81286,1.67932
5850.78316,1.68915
5849.75345,1.69432
5848.72375,1.69070
5847.69404,1.68643
5846.66434,1.68601
5845.63463,1.68551
5844.60493,1.67947
5843.57522,1.66842
5842.54552,1.66439
5841.51581,1.67236
5840.48611,1.67665
5839.45640,1.67213
5838.42670,1.67042
5837.39699,1.67645
5836.36729,1.68437
5835.33758,1.68544
5834.30788,1.67990
5833.27817,1.67691
5832.24847,1.67981
5831.21876,1.67997
5830.18906,1.67608
5829.15935,1.67639
5828.12965,1.67980
5827.09994,1.68194
5826.07024,1.68264
5825.04053,1.68112
5824.01083,1.68170
5822.98113,1.68611
5821.95142,1.69066
5820.92172,1.69342
5819.89201,1.68867
5818.86231,1.68321
5817.83260,1.68597
5816.80290,1.68952
5815.77319,1.68857
5814.74349,1.68666
5813.71378,1.68863
5812.68408,1.69072
5811.65437,1.68981
5810.62467,1.68923
5809.59496,1.69079
5808.56526,1.69689
5807.53555,1.70089
5806.50585,1.69614
5805.47614,1.69227
5804.44644,1.69543
5803.41673,1.69909
5802.38703,1.69370
5801.35732,1.68408
5800.32762,1.68189
5799.29791,1.68452
5798.26821,1.68761
5797.23850,1.69335
5796.20880,1.69873
5795.17909,1.69892
5794.14939,1.69403
5793.11968,1.68879
5792.08998,1.68711
5791.06027,1.68806
5790.03057,1.69199
5789.00086,1.69979
5787.97116,1.70637
5786.94145,1.70497
5785.91175,1.69638
5784.88204,1.68899
5783.85234,1.68711
5782.82263,1.69127
5781.79293,1.69619
5780.76322,1.69320
5779.73352,1.68774
5778.70382,1.69074
5777.67411,1.70089
5776.64441,1.71190
5775.61470,1.71524
5774.58500,1.70925
5773.55529,1.70628
5772.52559,1.70970
5771.49588,1.70817
5770.46618,1.69967
5769.43647,1.69378
5768.40677,1.69117
5767.37706,1.68869
5766.34736,1.68576
5765.31765,1.68442
5764.28795,1.68956
5763.25824,1.69347
5762.22854,1.68739
5761.19883,1.68167
5760.16913,1.68434
5759.13942,1.68772
5758.10972,1.68973
5757.08001,1.69400
5756.05031,1.69441
5755.02060,1.68938
5753.99090,1.68617
5752.96119,1.68550
5751.93149,1.68229
5750.90178,1.67698
5749.87208,1.67425
5748.84237,1.67471
5747.81267,1.67613
5746.78296,1.67970
5745.75326,1.68487
5744.72355,1.68794
5743.69385,1.68759
5742.66414,1.68404
5741.63444,1.67915
5740.60473,1.67859
5739.57503,1.68502
5738.54532,1.69075
5737.51562,1.68994
5736.48591,1.68712
5735.45621,1.68609
5734.42650,1.68329
5733.39680,1.67802
5732.36710,1.68231
5731.33739,1.69579
5730.30769,1.69834
5729.27798,1.68949
5728.24828,1.68249
5727.21857,1.67521
5726.18887,1.66967
5725.15916,1.67411
5724.12946,1.68382
5723.09975,1.69064
5722.07005,1.69340
5721.04034,1.69381
5720.01064,1.69191
5718.98093,1.68549
5717.95123,1.67894
5716.92152,1.67703
5715.89182,1.67628
5714.86211,1.67603
5713.83241,1.67805
5712.80270,1.67973
5711.77300,1.67980
5710.74329,1.68172
5709.71359,1.68743
5708.68388,1.69070
5707.65418,1.68482
5706.62447,1.67766
5705.59477,1.67824
5704.56506,1.68165
5703.53536,1.68315
5702.50565,1.68555
5701.47595,1.68985
5700.44624,1.69001
5699.41654,1.68456
5698.38683,1.68136
5697.35713,1.68152
5696.32742,1.68127
5695.29772,1.68317
5694.26801,1.68597
5693.23831,1.68596
5692.20860,1.68988
5691.17890,1.69872
5690.14919,1.70209
5689.11949,1.69638
5688.08979,1.68620
5687.06008,1.67708
5686.03038,1.67224
5685.00067,1.67495
5683.97097,1.68294
5682.94126,1.68565
5681.91156,1.68287
5680.88185,1.68516
5679.85215,1.69078
5678.82244,1.69172
5677.79274,1.69380
5676.76303,1.69959
5675.73333,1.70035
5674.70362,1.69507
5673.67392,1.68878
5672.64421,1.68321
5671.61451,1.67889
5670.58480,1.67751
5669.55510,1.68017
5668.52539,1.68565
5667.49569,1.69128
5666.46598,1.69444
5665.43628,1.69298
5664.40657,1.69113
5663.37687,1.69296
5662.34716,1.69272
5661.31746,1.68893
5660.28775,1.68585
5659.25805,1.68347
5658.22834,1.68057
5657.19864,1.67944
5656.16893,1.68135
5655.13923,1.68269
5654.10952,1.68252
5653.07982,1.68224
5652.05011,1.68061
5651.02041,1.68008
5649.99070,1.68423
5648.96100,1.68730
5647.93129,1.68579
5646.90159,1.68343
5645.87188,1.68131
5644.84218,1.67621
5643.81248,1.66951
5642.78277,1.66790
5641.75307,1.66927
5640.72336,1.66946
5639.69366,1.67288
5638.66395,1.68118
5637.63425,1.68409
5636.60454,1.67675
5635.57484,1.67022
5634.54513,1.67178
5633.51543,1.67586
5632.48572,1.67554
5631.45602,1.67254
5630.42631,1.66988
5629.39661,1.66894
5628.36690,1.66974
5627.33720,1.66984
5626.30749,1.67079
5625.27779,1.67622
5624.24808,1.68014
5623.21838,1.67573
5622.18867,1.67138
5621.15897,1.67370
5620.12926,1.67752
5619.09956,1.67675
5618.06985,1.67399
5617.04015,1.67506
5616.01044,1.67575
5614.98074,1.67216
5613.95103,1.66971
5612.92133,1.66956
5611.89162,1.66851
5610.86192,1.66708
5609.83221,1.66877
5608.80251,1.67458
5607.77280,1.67991
5606.74310,1.67848
5605.71339,1.67151
5604.68369,1.67020
5603.65398,1.67663
5602.62428,1.67901
5601.59457,1.67460
5600.56487,1.67115
5599.53517,1.67371
5598.50546,1.67893
5597.47576,1.67870
5596.44605,1.67539
5595.41635,1.67699
5594.38664,1.67993
5593.35694,1.67725
5592.32723,1.67117
5591.29753,1.66862
5590.26782,1.67145
5589.23812,1.67687
5588.20841,1.68077
5587.17871,1.67904
5586.14900,1.67431
5585.11930,1.67007
5584.08959,1.66619
5583.05989,1.66586
5582.03018,1.67034
5581.00048,1.67292
5579.97077,1.67091
5578.94107,1.66907
5577.91136,1.66844
5576.88166,1.66787
5575.85195,1.67027
5574.82225,1.67687
5573.79254,1.68081
5572.76284,1.67814
5571.73313,1.67222
5570.70343,1.66512
5569.67372,1.65858
5568.64402,1.65766
5567.61431,1.66316
5566.58461,1.66707
5565.55490,1.66614
5564.52520,1.66303
5563.49549,1.65876
5562.46579,1.65720
5561.43608,1.66290
5560.40638,1.67025
5559.37667,1.67207
5558.34697,1.67307
5557.31726,1.67561
5556.28756,1.67462
5555.25785,1.67386
5554.22815,1.67780
5553.19845,1.67817
5552.16874,1.67347
5551.13904,1.67293
5550.10933,1.67758
5549.07963,1.68013
5548.04992,1.67600
5547.02022,1.67128
5545.99051,1.67065
5544.96081,1.67042
5543.93110,1.66907
5542.90140,1.66563
5541.87169,1.66280
5540.84199,1.66659
5539.81228,1.67318
5538.78258,1.67772
5537.75287,1.68212
5536.72317,1.68574
5535.69346,1.68569
5534.66376,1.67880
5533.63405,1.66554
5532.60435,1.65932
5531.57464,1.66788
5530.54494,1.67875
5529.51523,1.68197
5528.48553,1.68200
5527.45582,1.68172
5526.42612,1.67973
5525.39641,1.67650
5524.36671,1.67245
5523.33700,1.66566
5522.30730,1.66308
5521.27759,1.67177
5520.24789,1.67905
5519.21818,1.67585
5518.18848,1.67276
5517.15877,1.67578
5516.12907,1.67321
5515.09936,1.66420
5514.06966,1.66417
5513.03995,1.67156
5512.01025,1.67783
5510.98054,1.68133
5509.95084,1.68033
5508.92114,1.67851
5507.89143,1.67944
5506.86173,1.67863
5505.83202,1.67422
5504.80232,1.67152
5503.77261,1.67381
5502.74291,1.67527
5501.71320,1.66911
5500.68350,1.66271
5499.65379,1.66390
5498.62409,1.66792
5497.59438,1.66935
5496.56468,1.66870
5495.53497,1.66746
5494.50527,1.67080
5493.47556,1.67958
5492.44586,1.68237
5491.41615,1.67734
5490.38645,1.67129
5489.35674,1.66660
5488.32704,1.66540
5487.29733,1.66502
5486.26763,1.66241
5485.23792,1.66374
5484.20822,1.67100
5483.17851,1.67443
5482.14881,1.67061
5481.11910,1.66537
5480.08940,1.66350
5479.05969,1.66675
5478.02999,1.67245
5477.00028,1.67689
5475.97058,1.67900
5474.94087,1.67904
5473.91117,1.67674
5472.88146,1.67291
5471.85176,1.67111
5470.82205,1.67284
5469.79235,1.67538
5468.76264,1.67543
5467.73294,1.67231
5466.70323,1.67055
5465.67353,1.66989
5464.64383,1.66493
5463.61412,1.65867
5462.58442,1.65750
5461.55471,1.66299
5460.52501,1.67169
5459.49530,1.67520
5458.46560,1.67262
5457.43589,1.66855
5456.40619,1.66530
5455.37648,1.66703
5454.34678,1.67134
5453.31707,1.67278
5452.28737,1.67251
5451.25766,1.67047
5450.22796,1.66772
5449.19825,1.66764
5448.16855,1.66990
5447.13884,1.66939
5446.10914,1.66428
5445.07943,1.66114
5444.04973,1.66059
5443.02002,1.65698
5441.99032,1.65586
5440.96061,1.66351
5439.93091,1.66815
5438.90120,1.66601
5437.87150,1.66580
5436.84179,1.66802
5435.81209,1.66983
5434.78238,1.66958
5433.75268,1.66541
5432.72297,1.66421
5431.69327,1.67040
5430.66356,1.67003
5429.63386,1.65711
5428.60415,1.65295
5427.57445,1.66164
5426.54474,1.66510
5425.51504,1.66338
5424.48533,1.66326
5423.45563,1.66401
5422.42592,1.66386
5421.39622,1.66295
5420.36652,1.66242
5419.33681,1.66098
5418.30711,1.66077
5417.27740,1.66479
5416.24770,1.66963
5415.21799,1.67300
5414.18829,1.67406
5413.15858,1.67184
5412.12888,1.67058
5411.09917,1.67163
5410.06947,1.67109
5409.03976,1.66839
5408.01006,1.66296
5406.98035,1.65645
5405.95065,1.65482
5404.92094,1.65693
5403.89124,1.65753
5402.86153,1.65694
5401.83183,1.65762
5400.80212,1.65831
5399.77242,1.65900
5398.74271,1.66165
5397.71301,1.66056
5396.68330,1.65507
5395.65360,1.65668
5394.62389,1.66372
5393.59419,1.66236
5392.56448,1.65479
5391.53478,1.65378
5390.50507,1.65923
5389.47537,1.66212
5388.44566,1.65899
5387.41596,1.65866
5386.38625,1.66583
5385.35655,1.66944
5384.32684,1.66371
5383.29714,1.65976
5382.26743,1.66551
5381.23773,1.67451
5380.20802,1.67958
5379.17832,1.67805
5378.14861,1.66914
5377.11891,1.66068
5376.08920,1.65945
5375.05950,1.65997
5374.02980,1.65741
5373.00009,1.65692
5371.97039,1.66047
5370.94068,1.66155
5369.91098,1.66000
5368.88127,1.66042
5367.85157,1.66368
5366.82186,1.66779
5365.79216,1.66988
5364.76245,1.66774
5363.73275,1.66219
5362.70304,1.66153
5361.67334,1.66864
5360.64363,1.67059
5359.61393,1.66061
5358.58422,1.65170
5357.55452,1.64988
5356.52481,1.64834
5355.49511,1.65461
5354.46540,1.67376
5353.43570,1.68431
5352.40599,1.67831
5351.37629,1.67009
5350.34658,1.66658
5349.31688,1.66730
5348.28717,1.66707
5347.25747,1.66896
5346.22776,1.67778
5345.19806,1.68454
5344.16835,1.68061
5343.13865,1.67368
5342.10894,1.66924
5341.07924,1.66548
5340.04953,1.66129
5339.01983,1.65747
5337.99012,1.65657
5336.96042,1.65820
5335.93071,1.66139
5334.90101,1.66710
5333.87130,1.67160
5332.84160,1.67262
5331.81189,1.67125
5330.78219,1.66724
5329.75249,1.66622
5328.72278,1.66852
5327.69308,1.66540
5326.66337,1.66226
5325.63367,1.66526
5324.60396,1.66703
5323.57426,1.66733
5322.54455,1.67041
5321.51485,1.67412
5320.48514,1.67244
5319.45544,1.66781
5318.42573,1.66790
5317.39603,1.67028
5316.36632,1.67049
5315.33662,1.67147
5314.30691,1.67634
5313.27721,1.67846
5312.24750,1.67140
5311.21780,1.66417
5310.18809,1.66509
5309.15839,1.66979
5308.12868,1.67222
5307.09898,1.67096
5306.06927,1.67077
5305.03957,1.67405
5304.00986,1.67765
5302.98016,1.67625
5301.95045,1.66915
5300.92075,1.66598
5299.89104,1.66899
5298.86134,1.66941
5297.83163,1.66807
5296.80193,1.66931
5295.77222,1.67116
5294.74252,1.67468
5293.71281,1.68007
5292.68311,1.68475
5291.65340,1.68939
5290.62370,1.69054
5289.59399,1.68481
5288.56429,1.67953
5287.53458,1.67942
5286.50488,1.67971
5285.47518,1.68206
5284.44547,1.68410
5283.41577,1.67928
5282.38606,1.67861
5281.35636,1.68318
5280.32665,1.68136
5279.29695,1.67730
5278.26724,1.67936
5277.23754,1.68552
5276.20783,1.69068
5275.17813,1.69328
5274.14842,1.69596
5273.11872,1.69893
5272.08901,1.69717
5271.05931,1.69344
5270.02960,1.69305
5268.99990,1.69155
5267.97019,1.68726
5266.94049,1.68658
5265.91078,1.69295
5264.88108,1.70028
5263.85137,1.70086
5262.82167,1.70049
5261.79196,1.70421
5260.76226,1.70568
5259.73255,1.70344
5258.70285,1.70459
5257.67314,1.70938
5256.64344,1.71153
5255.61373,1.71131
5254.58403,1.70911
5253.55432,1.70388
5252.52462,1.70101
5251.49491,1.70254
5250.46521,1.70534
5249.43550,1.70742
5248.40580,1.70629
5247.37609,1.70302
5246.34639,1.70577
5245.31668,1.71244
5244.28698,1.71326
5243.25727,1.71377
5242.22757,1.71997
5241.19786,1.72254
5240.16816,1.71683
5239.13846,1.71170
5238.10875,1.71225
5237.07905,1.71129
5236.04934,1.70728
5235.01964,1.70704
5233.98993,1.71232
5232.96023,1.72050
5231.93052,1.72942
5230.90082,1.73614
5229.87111,1.73634
5228.84141,1.73154
5227.81170,1.72666
5226.78200,1.72307
5225.75229,1.72172
5224.72259,1.72081
5223.69288,1.71816
5222.66318,1.71616
5221.63347,1.71603
5220.60377,1.72078
5219.57406,1.72958
5218.54436,1.73578
5217.51465,1.73754
5216.48495,1.73796
5215.45524,1.73958
5214.42554,1.74069
5213.39583,1.73848
5212.36613,1.73472
5211.33642,1.73500
5210.30672,1.73797
5209.27701,1.73720
5208.24731,1.73547
5207.21760,1.73679
5206.18790,1.73773
5205.15819,1.73888
5204.12849,1.74336
5203.09878,1.74825
5202.06908,1.74980
5201.03937,1.75002
5200.00967,1.75331
5198.97996,1.75498
5197.95026,1.75131
5196.92055,1.75061
5195.89085,1.75246
5194.86115,1.74755
5193.83144,1.74069
5192.80174,1.74105
5191.77203,1.74456
5190.74233,1.74520
5189.71262,1.74551
5188.68292,1.74738
5187.65321,1.75004
5186.62351,1.75201
5185.59380,1.75017
5184.56410,1.74835
5183.53439,1.74896
5182.50469,1.74949
5181.47498,1.75184
5180.44528,1.75475
5179.41557,1.75535
5178.38587,1.75648
5177.35616,1.75982
5176.32646,1.76177
5175.29675,1.76264
5174.26705,1.75964
5173.23734,1.75503
5172.20764,1.75527
5171.17793,1.75315
5170.14823,1.74669
5169.11852,1.74196
5168.08882,1.74182
5167.05911,1.74749
5166.02941,1.75575
5164.99970,1.76180
5163.97000,1.75971
5162.94029,1.75144
5161.91059,1.74826
5160.88088,1.75651
5159.85118,1.76934
5158.82147,1.77483
5157.79177,1.77017
5156.76206,1.76129
5155.73236,1.75574
5154.70265,1.75454
5153.67295,1.75564
5152.64324,1.76142
5151.61354,1.76851
5150.58384,1.76836
5149.55413,1.76341
5148.52443,1.75751
5147.49472,1.75031
5146.46502,1.74619
5145.43531,1.74900
5144.40561,1.75448
5143.37590,1.76012
5142.34620,1.76433
5141.31649,1.76299
5140.28679,1.76256
5139.25708,1.76637
5138.22738,1.76892
5137.19767,1.76870
5136.16797,1.76459
5135.13826,1.76144
5134.10856,1.76390
5133.07885,1.76660
5132.04915,1.76455
5131.01944,1.76186
5129.98974,1.76478
5128.96003,1.76737
5127.93033,1.76373
5126.90062,1.76177
5125.87092,1.76555
5124.84121,1.76779
5123.81151,1.76397
5122.78180,1.76057
5121.75210,1.75789
5120.72239,1.75175
5119.69269,1.74946
5118.66298,1.75248
5117.63328,1.75417
5116.60357,1.75503
5115.57387,1.75863
5114.54416,1.76293
5113.51446,1.76242
5112.48475,1.75812
5111.45505,1.75639
5110.42534,1.75865
5109.39564,1.76198
5108.36593,1.76189
5107.33623,1.75632
5106.30653,1.75234
5105.27682,1.75318
5104.24712,1.75151
5103.21741,1.74782
5102.18771,1.74911
5101.15800,1.75512
5100.12830,1.75974
5099.09859,1.76002
5098.06889,1.75854
5097.03918,1.75614
5096.00948,1.75240
5094.97977,1.74881
5093.95007,1.74747
5092.92036,1.75055
5091.89066,1.75553
5090.86095,1.75752
5089.83125,1.75470
5088.80154,1.75043
5087.77184,1.74850
5086.74213,1.75041
5085.71243,1.75655
5084.68272,1.76129
5083.65302,1.75979
5082.62331,1.75603
5081.59361,1.75527
5080.56390,1.75561
5079.53420,1.75159
5078.50449,1.74560
5077.47479,1.74405
5076.44508,1.74494
5075.41538,1.74645
5074.38567,1.75030
5073.35597,1.75149
5072.32626,1.75076
5071.29656,1.75395
5070.26685,1.75392
5069.23715,1.74746
5068.20744,1.74260
5067.17774,1.74251
5066.14803,1.74399
5065.11833,1.74390
5064.08862,1.74599
5063.05892,1.74940
5062.02921,1.74677
5060.99951,1.74290
5059.96981,1.74367
5058.94010,1.74575
5057.91040,1.74623
5056.88069,1.74575
5055.85099,1.74298
5054.82128,1.73610
5053.79158,1.73090
5052.76187,1.73386
5051.73217,1.74300
5050.70246,1.75101
5049.67276,1.75147
5048.64305,1.74560
5047.61335,1.74201
5046.58364,1.74356
5045.55394,1.74519
5044.52423,1.74757
5043.49453,1.75139
5042.46482,1.74972
5041.43512,1.74517
5040.40541,1.74503
5039.37571,1.74667
5038.34600,1.74427
5037.31630,1.73874
5036.28659,1.73535
5035.25689,1.73625
5034.22718,1.73892
5033.19748,1.73792
5032.16777,1.73517
5031.13807,1.73812
5030.10836,1.74284
5029.07866,1.74172
5028.04895,1.73904
5027.01925,1.74007
5025.98954,1.74386
5024.95984,1.74676
5023.93013,1.74458
5022.90043,1.73977
5021.87072,1.73684
5020.84102,1.73494
5019.81131,1.73339
5018.78161,1.73418
5017.75190,1.73802
5016.72220,1.74073
5015.69250,1.73828
5014.66279,1.73532
5013.63309,1.73449
5012.60338,1.73215
5011.57368,1.73170
5010.54397,1.73674
5009.51427,1.74098
5008.48456,1.73923
5007.45486,1.73647
5006.42515,1.73783
5005.39545,1.73958
5004.36574,1.73885
5003.33604,1.73874
5002.30633,1.73746
5001.27663,1.73098
5000.24692,1.72415
4999.21722,1.72140
4998.18751,1.72264
4997.15781,1.72678
4996.12810,1.72972
4995.09840,1.73037
4994.06869,1.73349
4993.03899,1.73965
4992.00928,1.74044
4990.97958,1.73306
4989.94987,1.72771
4988.92017,1.73113
4987.89046,1.73857
4986.86076,1.74238
4985.83105,1.73961
4984.80135,1.73299
4983.77164,1.72876
4982.74194,1.73009
4981.71223,1.73313
4980.68253,1.73357
4979.65282,1.73195
4978.62312,1.73010
4977.59341,1.72879
4976.56371,1.72927
4975.53400,1.72990
4974.50430,1.72877
4973.47459,1.73016
4972.44489,1.73185
4971.41519,1.72829
4970.38548,1.72561
4969.35578,1.72779
4968.32607,1.73050
4967.29637,1.73237
4966.26666,1.73279
4965.23696,1.73087
4964.20725,1.72990
4963.17755,1.72914
4962.14784,1.72682
4961.11814,1.72560
4960.08843,1.72740
4959.05873,1.73022
4958.02902,1.72967
4956.99932,1.72831
4955.96961,1.72851
4954.93991,1.72477
4953.91020,1.71775
4952.88050,1.71752
4951.85079,1.72442
4950.82109,1.72815
4949.79138,1.72719
4948.76168,1.72789
4947.73197,1.73119
4946.70227,1.73322
4945.67256,1.73291
4944.64286,1.73283
4943.61315,1.73290
4942.58345,1.73135
4941.55374,1.73037
4940.52404,1.73080
4939.49433,1.73160
4938.46463,1.73452
4937.43492,1.73827
4936.40522,1.74055
4935.37551,1.74120
4934.34581,1.74006
4933.31610,1.73878
4932.28640,1.73815
4931.25669,1.73594
4930.22699,1.73152
4929.19728,1.73021
4928.16758,1.73245
4927.13788,1.73345
4926.10817,1.73673
4925.07847,1.74158
4924.04876,1.74048
4923.01906,1.73627
4921.98935,1.73534
4920.95965,1.73954
4919.92994,1.74349
4918.90024,1.74024
4917.87053,1.73351
4916.84083,1.72969
4915.81112,1.72754
4914.78142,1.72669
4913.75171,1.73157
4912.72201,1.73791
4911.69230,1.73810
4910.66260,1.73426
4909.63289,1.73080
4908.60319,1.72982
4907.57348,1.73080
4906.54378,1.73134
4905.51407,1.73094
4904.48437,1.73102
4903.45466,1.73313
4902.42496,1.73658
4901.39525,1.73828
4900.36555,1.73649
4899.33584,1.73497
4898.30614,1.73539
4897.27643,1.73430
4896.24673,1.73292
4895.21702,1.73206
4894.18732,1.72894
4893.15761,1.72528
4892.12791,1.72604
4891.09820,1.73111
4890.06850,1.73501
4889.03879,1.73688
4888.00909,1.73986
4886.97938,1.74172
4885.94968,1.74100
4884.91997,1.74024
4883.89027,1.73712
4882.86056,1.73274
4881.83086,1.73386
4880.80116,1.73795
4879.77145,1.73938
4878.74175,1.73936
4877.71204,1.73944
4876.68234,1.73890
4875.65263,1.73605
4874.62293,1.73179
4873.59322,1.73148
4872.56352,1.73732
4871.53381,1.74386
4870.50411,1.74273
4869.47440,1.73592
4868.44470,1.73249
4867.41499,1.73129
4866.38529,1.72885
4865.35558,1.73012
4864.32588,1.73487
4863.29617,1.73458
4862.26647,1.73187
4861.23676,1.73343
4860.20706,1.73653
4859.17735,1.73983
4858.14765,1.74051
4857.11794,1.73850
4856.08824,1.74080
4855.05853,1.74502
4854.02883,1.74440
4852.99912,1.73946
4851.96942,1.73479
4850.93971,1.73488
4849.91001,1.73755
4848.88030,1.73768
4847.85060,1.73467
4846.82089,1.73203
4845.79119,1.73488
4844.76148,1.74072
4843.73178,1.74165
4842.70207,1.73816
4841.67237,1.73660
4840.64266,1.73811
4839.61296,1.74138
4838.58325,1.74459
4837.55355,1.74539
4836.52385,1.74458
4835.49414,1.74219
4834.46444,1.73948
4833.43473,1.73951
4832.40503,1.74103
4831.37532,1.73988
4830.34562,1.73690
4829.31591,1.73659
4828.28621,1.73795
4827.25650,1.74013
4826.22680,1.74245
4825.19709,1.74064
4824.16739,1.73718
4823.13768,1.73678
4822.10798,1.73612
4821.07827,1.73424
4820.04857,1.73726
4819.01886,1.74188
4817.98916,1.73982
4816.95945,1.73653
4815.92975,1.73810
4814.90004,1.73999
4813.87034,1.73961
4812.84063,1.73889
4811.81093,1.74081
4810.78122,1.74626
4809.75152,1.75013
4808.72181,1.74798
4807.69211,1.74279
4806.66240,1.74002
4805.63270,1.73863
4804.60299,1.73707
4803.57329,1.73946
4802.54358,1.74326
4801.51388,1.74287
4800.48417,1.74181
4799.45447,1.74252
4798.42476,1.74180
4797.39506,1.74017
4796.36535,1.74132
4795.33565,1.74334
4794.30594,1.74289
4793.27624,1.74292
4792.24654,1.74467
4791.21683,1.74303
4790.18713,1.73832
4789.15742,1.73769
4788.12772,1.74029
4787.09801,1.73984
4786.06831,1.73711
4785.03860,1.73693
4784.00890,1.74017
4782.97919,1.74395
4781.94949,1.74527
4780.91978,1.74691
4779.89008,1.75018
4778.86037,1.74920
4777.83067,1.74562
4776.80096,1.74658
4775.77126,1.74922
4774.74155,1.74539
4773.71185,1.73910
4772.68214,1.73916
4771.65244,1.74418
4770.62273,1.74773
4769.59303,1.74871
4768.56332,1.75133
4767.53362,1.75321
4766.50391,1.75059
4765.47421,1.74641
4764.44450,1.74237
4763.41480,1.73950
4762.38509,1.74055
4761.35539,1.74431
4760.32568,1.74506
4759.29598,1.74326
4758.26627,1.74274
4757.23657,1.74251
4756.20686,1.74305
4755.17716,1.74458
4754.14745,1.74508
4753.11775,1.74465
4752.08804,1.74416
4751.05834,1.74348
4750.02863,1.74362
4748.99893,1.74481
4747.96923,1.74359
4746.93952,1.74220
4745.90982,1.74481
4744.88011,1.74674
4743.85041,1.74691
4742.82070,1.74863
4741.79100,1.74699
4740.76129,1.74095
4739.73159,1.73960
4738.70188,1.74421
4737.67218,1.74690
4736.64247,1.74623
4735.61277,1.74776
4734.58306,1.75021
4733.55336,1.74984
4732.52365,1.74860
4731.49395,1.74526
4730.46424,1.74125
4729.43454,1.74234
4728.40483,1.74602
4727.37513,1.74769
4726.34542,1.74823
4725.31572,1.74899
4724.28601,1.74867
4723.25631,1.74689
4722.22660,1.74649
4721.19690,1.74773
4720.16719,1.74835
4719.13749,1.74754
4718.10778,1.74673
4717.07808,1.74895
4716.04837,1.75156
4715.01867,1.75014
4713.98896,1.74683
4712.95926,1.74351
4711.92955,1.74136
4710.89985,1.74371
4709.87014,1.74787
4708.84044,1.74784
4707.81073,1.74604
4706.78103,1.74753
4705.75132,1.74853
4704.72162,1.74492
4703.69191,1.73984
4702.66221,1.73687
4701.63251,1.73868
4700.60280,1.74419
4699.57310,1.74681
4698.54339,1.74581
4697.51369,1.74674
4696.48398,1.74861
4695.45428,1.74888
4694.42457,1.75112
4693.39487,1.75527
4692.36516,1.75480
4691.33546,1.75013
4690.30575,1.74891
4689.27605,1.75021
4688.24634,1.74968
4687.21664,1.74895
4686.18693,1.74947
4685.15723,1.75041
4684.12752,1.74988
4683.09782,1.74683
4682.06811,1.74409
4681.03841,1.74271
4680.00870,1.74167
4678.97900,1.74294
4677.94929,1.74520
4676.91959,1.74676
4675.88988,1.74840
4674.86018,1.74767
4673.83047,1.74657
4672.80077,1.74971
4671.77106,1.75410
4670.74136,1.75760
4669.71165,1.76051
4668.68195,1.75943
4667.65224,1.75404
4666.62254,1.74923
4665.59283,1.74877
4664.56313,1.75023
4663.53342,1.75044
4662.50372,1.74954
4661.47401,1.74834
4660.44431,1.74764
4659.41460,1.74649
4658.38490,1.74509
4657.35520,1.74502
4656.32549,1.74620
4655.29579,1.74774
4654.26608,1.74838
4653.23638,1.74854
4652.20667,1.74944
4651.17697,1.74827
4650.14726,1.74524
4649.11756,1.74377
4648.08785,1.74204
4647.05815,1.74040
4646.02844,1.74117
4644.99874,1.74206
4643.96903,1.74433
4642.93933,1.74867
4641.90962,1.74753
4640.87992,1.74155
4639.85021,1.73939
4638.82051,1.74068
4637.79080,1.74082
4636.76110,1.74129
4635.73139,1.74383
4634.70169,1.74524
4633.67198,1.74408
4632.64228,1.74303
4631.61257,1.74348
4630.58287,1.74364
4629.55316,1.74275
4628.52346,1.74313
4627.49375,1.74576
4626.46405,1.74527
4625.43434,1.74076
4624.40464,1.74006
4623.37493,1.74328
4622.34523,1.74470
4621.31552,1.74487
4620.28582,1.74455
4619.25611,1.74139
4618.22641,1.73908
4617.19670,1.74202
4616.16700,1.74524
4615.13729,1.74441
4614.10759,1.74383
4613.07789,1.74611
4612.04818,1.74687
4611.01848,1.74345
4609.98877,1.73979
4608.95907,1.74007
4607.92936,1.74091
4606.89966,1.74016
4605.86995,1.74142
4604.84025,1.74300
4603.81054,1.74343
4602.78084,1.74437
4601.75113,1.74456
4600.72143,1.74494
4599.69172,1.74572
4598.66202,1.74423
4597.63231,1.74236
4596.60261,1.74294
4595.57290,1.74289
4594.54320,1.74096
4593.51349,1.74245
4592.48379,1.74845
4591.45408,1.75164
4590.42438,1.74907
4589.39467,1.74580
4588.36497,1.74381
4587.33526,1.74151
4586.30556,1.74009
4585.27585,1.74050
4584.24615,1.74135
4583.21644,1.74212
4582.18674,1.74211
4581.15703,1.74148
4580.12733,1.74148
4579.09762,1.74213
4578.06792,1.74340
4577.03821,1.74297
4576.00851,1.74069
4574.97880,1.74058
4573.94910,1.74282
4572.91939,1.74432
4571.88969,1.74470
4570.85998,1.74548
4569.83028,1.74629
4568.80058,1.74552
4567.77087,1.74332
4566.74117,1.74112
4565.71146,1.74048
4564.68176,1.74128
4563.65205,1.74204
4562.62235,1.74447
4561.59264,1.74807
4560.56294,1.74747
4559.53323,1.74402
4558.50353,1.74283
4557.47382,1.74298
4556.44412,1.74279
4555.41441,1.74390
4554.38471,1.74539
4553.35500,1.74419
4552.32530,1.74183
4551.29559,1.74112
4550.26589,1.74284
4549.23618,1.74568
4548.20648,1.74510
4547.17677,1.74174
4546.14707,1.74096
4545.11736,1.74382
4544.08766,1.74727
4543.05795,1.74703
4542.02825,1.74488
4540.99854,1.74452
4539.96884,1.74460
4538.93913,1.74559
4537.90943,1.74652
4536.87972,1.74451
4535.85002,1.74233
4534.82031,1.74237
4533.79061,1.74379
4532.76090,1.74632
4531.73120,1.74853
4530.70149,1.74909
4529.67179,1.74923
4528.64208,1.74885
4527.61238,1.74687
4526.58267,1.74574
4525.55297,1.74702
4524.52326,1.74782
4523.49356,1.74574
4522.46386,1.74387
4521.43415,1.74372
4520.40445,1.74309
4519.37474,1.74514
4518.34504,1.74988
4517.31533,1.75146
4516.28563,1.75010
4515.25592,1.74909
4514.22622,1.74845
4513.19651,1.74835
4512.16681,1.74873
4511.13710,1.74758
4510.10740,1.74534
4509.07769,1.74449
4508.04799,1.74486
4507.01828,1.74437
4505.98858,1.74398
4504.95887,1.74510
4503.92917,1.74597
4502.89946,1.74641
4501.86976,1.74783
4500.84005,1.74955
4499.81035,1.75008
4498.78064,1.74881
4497.75094,1.74761
4496.72123,1.74894
4495.69153,1.74980
4494.66182,1.74741
4493.63212,1.74571
4492.60241,1.74791
4491.57271,1.75111
4490.54300,1.75346
4489.51330,1.75628
4488.48359,1.75744
4487.45389,1.75604
4486.42418,1.75519
4485.39448,1.75587
4484.36477,1.75614
4483.33507,1.75592
4482.30536,1.75591
4481.27566,1.75425
4480.24595,1.75140
4479.21625,1.75159
4478.18655,1.75548
4477.15684,1.75926
4476.12714,1.76064
4475.09743,1.75964
4474.06773,1.75642
4473.03802,1.75295
4472.00832,1.75287
4470.97861,1.75621
4469.94891,1.75902
4468.91920,1.75954
4467.88950,1.76022
4466.85979,1.76317
4465.83009,1.76673
4464.80038,1.76890
4463.77068,1.76996
4462.74097,1.77158
4461.71127,1.77371
4460.68156,1.77379
4459.65186,1.77147
4458.62215,1.76851
4457.59245,1.76663
4456.56274,1.76868
4455.53304,1.77329
4454.50333,1.77454
4453.47363,1.77417
4452.44392,1.77734
4451.41422,1.78074
4450.38451,1.78101
4449.35481,1.78069
4448.32510,1.78062
4447.29540,1.78086
4446.26569,1.78203
4445.23599,1.78210
4444.20628,1.78010
4443.17658,1.77909
4442.14687,1.78144
4441.11717,1.78462
4440.08746,1.78525
4439.05776,1.78489
4438.02805,1.78766
4436.99835,1.79211
4435.96864,1.79423
4434.93894,1.79528
4433.90924,1.79900
4432.87953,1.80457
4431.84983,1.80661
4430.82012,1.80426
4429.79042,1.80336
4428.76071,1.80631
4427.73101,1.80805
4426.70130,1.80632
4425.67160,1.80497
4424.64189,1.80594
4423.61219,1.80908
4422.58248,1.81227
4421.55278,1.81286
4420.52307,1.81340
4419.49337,1.81678
4418.46366,1.81937
4417.43396,1.81897
4416.40425,1.81945
4415.37455,1.82257
4414.34484,1.82700
4413.31514,1.83028
4412.28543,1.83002
4411.25573,1.82971
4410.22602,1.83273
4409.19632,1.83553
4408.16661,1.83779
4407.13691,1.84194
4406.10720,1.84346
4405.07750,1.84019
4404.04779,1.83808
4403.01809,1.83937
4401.98838,1.84121
4400.95868,1.84318
4399.92897,1.84454
4398.89927,1.84442
4397.86956,1.84591
4396.83986,1.84932
4395.81015,1.85087
4394.78045,1.85143
4393.75074,1.85344
4392.72104,1.85463
4391.69133,1.85546
4390.66163,1.85723
4389.63193,1.85647
4388.60222,1.85480
4387.57252,1.85729
4386.54281,1.86267
4385.51311,1.86714
4384.48340,1.86969
4383.45370,1.87123
4382.42399,1.87136
4381.39429,1.86885
4380.36458,1.86623
4379.33488,1.86702
4378.30517,1.87061
4377.27547,1.87472
4376.24576,1.87793
4375.21606,1.87846
4374.18635,1.87585
4373.15665,1.87460
4372.12694,1.87791
4371.09724,1.88230
4370.06753,1.88553
4369.03783,1.88811
4368.00812,1.88977
4366.97842,1.89156
4365.94871,1.89193
4364.91901,1.88975
4363.88930,1.88829
4362.85960,1.88985
4361.82989,1.89299
4360.80019,1.89470
4359.77048,1.89461
4358.74078,1.89611
4357.71107,1.90177
4356.68137,1.90823
4355.65166,1.91001
4354.62196,1.90906
4353.59225,1.91032
4352.56255,1.91239
4351.53284,1.91320
4350.50314,1.91467
4349.47343,1.91656
4348.44373,1.91689
4347.41402,1.91714
4346.38432,1.91906
4345.35461,1.92139
4344.32491,1.92233
4343.29521,1.92334
4342.26550,1.92732
4341.23580,1.93199
4340.20609,1.93272
4339.17639,1.92921
4338.14668,1.92576
4337.11698,1.92593
4336.08727,1.92776
4335.05757,1.92769
4334.02786,1.92818
4332.99816,1.93264
4331.96845,1.93592
4330.93875,1.93369
4329.90904,1.93246
4328.87934,1.93594
4327.84963,1.93740
4326.81993,1.93640
4325.79022,1.93911
4324.76052,1.94344
4323.73081,1.94449
4322.70111,1.94343
4321.67140,1.94156
4320.64170,1.93726
4319.61199,1.93187
4318.58229,1.92759
4317.55258,1.92317
4316.52288,1.91837
4315.49317,1.91442
4314.46347,1.90975
4313.43376,1.90459
4312.40406,1.90156
4311.37435,1.89977
4310.34465,1.89883
4309.31494,1.89765
4308.28524,1.89362
4307.25553,1.89090
4306.22583,1.89236
4305.19612,1.89289
4304.16642,1.89084
4303.13671,1.88904
4302.10701,1.88782
4301.07730,1.88677
4300.04760,1.88756
4299.01790,1.89081
4297.98819,1.89202
4296.95849,1.88982
4295.92878,1.88976
4294.89908,1.89262
4293.86937,1.89428
4292.83967,1.89421
4291.80996,1.89318
4290.78026,1.89045
4289.75055,1.88813
4288.72085,1.88858
4287.69114,1.88940
4286.66144,1.88988
4285.63173,1.89240
4284.60203,1.89612
4283.57232,1.89999
4282.54262,1.90316
4281.51291,1.90282
4280.48321,1.90135
4279.45350,1.90255
4278.42380,1.90347
4277.39409,1.90261
4276.36439,1.90317
4275.33468,1.90623
4274.30498,1.90858
4273.27527,1.90726
4272.24557,1.90375
4271.21586,1.90224
4270.18616,1.90482
4269.15645,1.90839
4268.12675,1.91004
4267.09704,1.91118
4266.06734,1.91208
4265.03763,1.91121
4264.00793,1.91109
4262.97822,1.91280
4261.94852,1.91327
4260.91881,1.91373
4259.88911,1.91586
4258.85940,1.91729
4257.82970,1.91894
4256.79999,1.92200
4255.77029,1.92527
4254.74059,1.92756
4253.71088,1.92572
4252.68118,1.92322
4251.65147,1.92478
4250.62177,1.92642
4249.59206,1.92533
4248.56236,1.92243
4247.53265,1.91851
4246.50295,1.91413
4245.47324,1.90955
4244.44354,1.90591
4243.41383,1.90472
4242.38413,1.90526
4241.35442,1.90495
4240.32472,1.90156
4239.29501,1.89812
4238.26531,1.89741
4237.23560,1.89588
4236.20590,1.89473
4235.17619,1.89738
4234.14649,1.89949
4233.11678,1.89903
4232.08708,1.89973
4231.05737,1.90156
4230.02767,1.90144
4228.99796,1.89758
4227.96826,1.89227
4226.93855,1.89100
4225.90885,1.89466
4224.87914,1.89824
4223.84944,1.89864
4222.81973,1.89832
4221.79003,1.89937
4220.76032,1.90156
4219.73062,1.90286
4218.70091,1.90129
4217.67121,1.89943
4216.64150,1.89893
4215.61180,1.89737
4214.58209,1.89606
4213.55239,1.89841
4212.52268,1.90116
4211.49298,1.90065
4210.46328,1.90019
4209.43357,1.90159
4208.40387,1.90115
4207.37416,1.89905
4206.34446,1.89825
4205.31475,1.89844
4204.28505,1.90010
4203.25534,1.90221
4202.22564,1.90229
4201.19593,1.90177
4200.16623,1.90220
4199.13652,1.90205
4198.10682,1.90275
4197.07711,1.90688
4196.04741,1.90950
4195.01770,1.90771
4193.98800,1.90596
4192.95829,1.90540
4191.92859,1.90509
4190.89888,1.90514
4189.86918,1.90467
4188.83947,1.90465
4187.80977,1.90476
4186.78006,1.90302
4185.75036,1.90075
4184.72065,1.90015
4183.69095,1.90166
4182.66124,1.90307
4181.63154,1.90228
4180.60183,1.90067
4179.57213,1.90011
4178.54242,1.89967
4177.51272,1.89910
4176.48301,1.90056
4175.45331,1.90272
4174.42360,1.90340
4173.39390,1.90396
4172.36419,1.90385
4171.33449,1.90273
4170.30478,1.90303
4169.27508,1.90511
4168.24537,1.90708
4167.21567,1.90793
4166.18596,1.90731
4165.15626,1.90543
4164.12656,1.90327
4163.09685,1.90273
4162.06715,1.90431
4161.03744,1.90388
4160.00774,1.90189
4158.97803,1.90237
4157.94833,1.90213
4156.91862,1.89969
4155.88892,1.89935
4154.85921,1.90255
4153.82951,1.90618
4152.79980,1.90675
4151.77010,1.90382
4150.74039,1.90106
4149.71069,1.90235
4148.68098,1.90492
4147.65128,1.90352
4146.62157,1.90001
4145.59187,1.89891
4144.56216,1.90070
4143.53246,1.90457
4142.50275,1.90730
4141.47305,1.90635
4140.44334,1.90473
4139.41364,1.90470
4138.38393,1.90473
4137.35423,1.90338
4136.32452,1.90153
4135.29482,1.89969
4134.26511,1.89869
4133.23541,1.89912
4132.20570,1.89891
4131.17600,1.89777
4130.14629,1.89795
4129.11659,1.89860
4128.08688,1.89740
4127.05718,1.89600
4126.02747,1.89571
4124.99777,1.89602
4123.96806,1.89669
4122.93836,1.89721
4121.90865,1.89740
4120.87895,1.89762
4119.84925,1.89843
4118.81954,1.89928
4117.78984,1.89868
4116.76013,1.89692
4115.73043,1.89647
4114.70072,1.89785
4113.67102,1.89885
4112.64131,1.89885
4111.61161,1.89904
4110.58190,1.89987
4109.55220,1.90066
4108.52249,1.90126
4107.49279,1.90278
4106.46308,1.90457
4105.43338,1.90499
4104.40367,1.90342
4103.37397,1.90186
4102.34426,1.90320
4101.31456,1.90527
4100.28485,1.90458
4099.25515,1.90285
4098.22544,1.90267
4097.19574,1.90260
4096.16603,1.90239
4095.13633,1.90189
4094.10662,1.90015
4093.07692,1.90121
4092.04721,1.90517
4091.01751,1.90734
4089.98780,1.90791
4088.95810,1.90761
4087.92839,1.90470
4086.89869,1.90033
4085.86898,1.89857
4084.83928,1.89991
4083.80957,1.90082
4082.77987,1.90121
4081.75016,1.90230
4080.72046,1.90167
4079.69075,1.89988
4078.66105,1.90110
4077.63134,1.90381
4076.60164,1.90364
4075.57194,1.90273
4074.54223,1.90296
4073.51253,1.90336
4072.48282,1.90482
4071.45312,1.90548
4070.42341,1.90350
4069.39371,1.90191
4068.36400,1.90364
4067.33430,1.90681
4066.30459,1.90782
4065.27489,1.90644
4064.24518,1.90334
4063.21548,1.90041
4062.18577,1.90078
4061.15607,1.90307
4060.12636,1.90496
4059.09666,1.90588
4058.06695,1.90513
4057.03725,1.90575
4056.00754,1.91013
4054.97784,1.91360
4053.94813,1.91199
4052.91843,1.90860
4051.88872,1.90676
4050.85902,1.90578
4049.82931,1.90617
4048.79961,1.90815
4047.76990,1.90826
4046.74020,1.90613
4045.71049,1.90500
4044.68079,1.90597
4043.65108,1.90763
4042.62138,1.90743
4041.59167,1.90573
4040.56197,1.90529
4039.53226,1.90643
4038.50256,1.90747
4037.47285,1.90683
4036.44315,1.90615
4035.41344,1.90855
4034.38374,1.91091
4033.35403,1.90925
4032.32433,1.90661
4031.29463,1.90632
4030.26492,1.90615
4029.23522,1.90497
4028.20551,1.90618
4027.17581,1.90901
4026.14610,1.90993
4025.11640,1.90957
4024.08669,1.90970
4023.05699,1.91003
4022.02728,1.91110
4020.99758,1.91236
4019.96787,1.91149
4018.93817,1.90991
4017.90846,1.90971
4016.87876,1.91003
4015.84905,1.90943
4014.81935,1.90770
4013.78964,1.90571
4012.75994,1.90488
4011.73023,1.90531
4010.70053,1.90498
4009.67082,1.90364
4008.64112,1.90382
4007.61141,1.90571
4006.58171,1.90607
4005.55200,1.90440
4004.52230,1.90322
4003.49259,1.90394
4002.46289,1.90553
4001.43318,1.90547
4000.40348,1.90396
3999.37377,1.90369
3998.34407,1.90506
3997.31436,1.90608
3996.28466,1.90522
3995.25495,1.90378
3994.22525,1.90405
3993.19554,1.90544
3992.16584,1.90508
3991.13613,1.90225
3990.10643,1.90083
3989.07672,1.90181
3988.04702,1.90235
3987.01731,1.90316
3985.98761,1.90522
3984.95791,1.90648
3983.92820,1.90644
3982.89850,1.90656
3981.86879,1.90714
3980.83909,1.90746
3979.80938,1.90712
3978.77968,1.90622
3977.74997,1.90484
3976.72027,1.90355
3975.69056,1.90307
3974.66086,1.90341
3973.63115,1.90339
3972.60145,1.90288
3971.57174,1.90413
3970.54204,1.90584
3969.51233,1.90524
3968.48263,1.90449
3967.45292,1.90583
3966.42322,1.90795
3965.39351,1.90882
3964.36381,1.90716
3963.33410,1.90585
3962.30440,1.90663
3961.27469,1.90574
3960.24499,1.90425
3959.21528,1.90523
3958.18558,1.90672
3957.15587,1.90845
3956.12617,1.91049
3955.09646,1.90984
3954.06676,1.90775
3953.03705,1.90700
3952.00735,1.90696
3950.97764,1.90654
3949.94794,1.90589
3948.91823,1.90495
3947.88853,1.90386
3946.85882,1.90479
3945.82912,1.90634
3944.79941,1.90561
3943.76971,1.90419
3942.74000,1.90299
3941.71030,1.90206
3940.68060,1.90338
3939.65089,1.90496
3938.62119,1.90446
3937.59148,1.90286
3936.56178,1.90141
3935.53207,1.90110
3934.50237,1.90062
3933.47266,1.90009
3932.44296,1.90185
3931.41325,1.90311
3930.38355,1.90193
3929.35384,1.90049
3928.32414,1.89799
3927.29443,1.89506
3926.26473,1.89581
3925.23502,1.89823
3924.20532,1.89709
3923.17561,1.89561
3922.14591,1.89593
3921.11620,1.89577
3920.08650,1.89520
3919.05679,1.89540
3918.02709,1.89593
3916.99738,1.89538
3915.96768,1.89215
3914.93797,1.88991
3913.90827,1.89180
3912.87856,1.89448
3911.84886,1.89480
3910.81915,1.89359
3909.78945,1.89266
3908.75974,1.89336
3907.73004,1.89551
3906.70033,1.89680
3905.67063,1.89490
3904.64092,1.89236
3903.61122,1.89315
3902.58151,1.89526
3901.55181,1.89517
3900.52210,1.89394
3899.49240,1.89412
3898.46269,1.89426
3897.43299,1.89257
3896.40329,1.89082
3895.37358,1.89071
3894.34388,1.89142
3893.31417,1.89148
3892.28447,1.89152
3891.25476,1.89140
3890.22506,1.88973
3889.19535,1.88782
3888.16565,1.88738
3887.13594,1.89105
3886.10624,1.89790
3885.07653,1.89795
3884.04683,1.89341
3883.01712,1.89075
3881.98742,1.89107
3880.95771,1.89533
3879.92801,1.89704
3878.89830,1.89262
3877.86860,1.88925
3876.83889,1.88870
3875.80919,1.88881
3874.77948,1.88971
3873.74978,1.89019
3872.72007,1.88872
3871.69037,1.89039
3870.66066,1.89938
3869.63096,1.90536
3868.60125,1.89807
3867.57155,1.88914
3866.54184,1.88502
3865.51214,1.88758
3864.48243,1.89085
3863.45273,1.88924
3862.42302,1.88689
3861.39332,1.88415
3860.36361,1.88161
3859.33391,1.88313
3858.30420,1.88882
3857.27450,1.89417
3856.24479,1.89502
3855.21509,1.89476
3854.18538,1.89782
3853.15568,1.89736
3852.12598,1.89081
3851.09627,1.88745
3850.06657,1.88855
3849.03686,1.88987
3848.00716,1.88866
3846.97745,1.88635
3845.94775,1.88544
3844.91804,1.88648
3843.88834,1.88970
3842.85863,1.89324
3841.82893,1.89321
3840.79922,1.89081
3839.76952,1.88986
3838.73981,1.88932
3837.71011,1.88959
3836.68040,1.89145
3835.65070,1.89201
3834.62099,1.89324
3833.59129,1.89536
3832.56158,1.89481
3831.53188,1.89050
3830.50217,1.88687
3829.47247,1.88552
3828.44276,1.88545
3827.41306,1.88772
3826.38335,1.89010
3825.35365,1.89106
3824.32394,1.89383
3823.29424,1.89872
3822.26453,1.90303
3821.23483,1.90158
3820.20512,1.89690
3819.17542,1.89662
3818.14571,1.89704
3817.11601,1.89817
3816.08630,1.89999
3815.05660,1.89631
3814.02689,1.89077
3812.99719,1.88917
3811.96748,1.89182
3810.93778,1.89560
3809.90807,1.89789
3808.87837,1.89829
3807.84866,1.89960
3806.81896,1.90166
3805.78926,1.90067
3804.75955,1.89994
3803.72985,1.90005
3802.70014,1.89900
3801.67044,1.89771
3800.64073,1.89811
3799.61103,1.89852
3798.58132,1.89826
3797.55162,1.89849
3796.52191,1.89803
3795.49221,1.89622
3794.46250,1.89517
3793.43280,1.89608
3792.40309,1.89809
3791.37339,1.89861
3790.34368,1.89780
3789.31398,1.89785
3788.28427,1.89891
3787.25457,1.89986
3786.22486,1.89978
3785.19516,1.89897
3784.16545,1.89954
3783.13575,1.90120
3782.10604,1.90134
3781.07634,1.90007
3780.04663,1.90166
3779.01693,1.90547
3777.98722,1.90418
3776.95752,1.90020
3775.92781,1.89808
3774.89811,1.89795
3773.86840,1.89924
3772.83870,1.90127
3771.80899,1.90264
3770.77929,1.90370
3769.74958,1.90393
3768.71988,1.90099
3767.69017,1.89882
3766.66047,1.89924
3765.63076,1.89917
3764.60106,1.89855
3763.57135,1.89917
3762.54165,1.90098
3761.51195,1.90426
3760.48224,1.90745
3759.45254,1.90609
3758.42283,1.90305
3757.39313,1.90311
3756.36342,1.90509
3755.33372,1.90779
3754.30401,1.91148
3753.27431,1.91639
3752.24460,1.91880
3751.21490,1.91376
3750.18519,1.90838
3749.15549,1.90661
3748.12578,1.90558
3747.09608,1.90527
3746.06637,1.91057
3745.03667,1.92331
3744.00696,1.92344
3742.97726,1.91628
3741.94755,1.91519
3740.91785,1.91523
3739.88814,1.91347
3738.85844,1.91589
3737.82873,1.92311
3736.79903,1.92507
3735.76932,1.91912
3734.73962,1.91668
3733.70991,1.92004
3732.68021,1.92384
3731.65050,1.92677
3730.62080,1.92643
3729.59109,1.92489
3728.56139,1.92689
3727.53168,1.93158
3726.50198,1.93177
3725.47227,1.92696
3724.44257,1.92497
3723.41286,1.92809
3722.38316,1.93257
3721.35345,1.93347
3720.32375,1.93284
3719.29404,1.93313
3718.26434,1.93507
3717.23464,1.93881
3716.20493,1.94099
3715.17523,1.94047
3714.14552,1.94130
3713.11582,1.94628
3712.08611,1.95173
3711.05641,1.95156
3710.02670,1.95206
3708.99700,1.95381
3707.96729,1.95377
3706.93759,1.95446
3705.90788,1.95639
3704.87818,1.96000
3703.84847,1.96605
3702.81877,1.97343
3701.78906,1.97717
3700.75936,1.97301
3699.72965,1.96939
3698.69995,1.97243
3697.67024,1.97759
3696.64054,1.98083
3695.61083,1.98493
3694.58113,1.98813
3693.55142,1.98793
3692.52172,1.98845
3691.49201,1.99282
3690.46231,1.99608
3689.43260,1.99766
3688.40290,2.00467
3687.37319,2.00975
3686.34349,2.00971
3685.31378,2.01051
3684.28408,2.01304
3683.25437,2.01659
3682.22467,2.02016
3681.19496,2.02339
3680.16526,2.02859
3679.13555,2.03471
3678.10585,2.03852
3677.07614,2.04090
3676.04644,2.04413
3675.01673,2.05041
3673.98703,2.05314
3672.95733,2.05086
3671.92762,2.05160
3670.89792,2.05890
3669.86821,2.06611
3668.83851,2.06893
3667.80880,2.07025
3666.77910,2.07245
3665.74939,2.07557
3664.71969,2.07932
3663.68998,2.08525
3662.66028,2.09225
3661.63057,2.09672
3660.60087,2.09862
3659.57116,2.10067
3658.54146,2.10451
3657.51175,2.10995
3656.48205,2.11604
3655.45234,2.12122
3654.42264,2.12486
3653.39293,2.12771
3652.36323,2.13194
3651.33352,2.13876
3650.30382,2.14202
3649.27411,2.13351
3648.24441,2.12363
3647.21470,2.12904
3646.18500,2.14356
3645.15529,2.14882
3644.12559,2.14844
3643.09588,2.15003
3642.06618,2.15219
3641.03647,2.15442
3640.00677,2.15791
3638.97706,2.16053
3637.94736,2.16276
3636.91765,2.16698
3635.88795,2.17374
3634.85824,2.18036
3633.82854,2.18275
3632.79883,2.18343
3631.76913,2.18658
3630.73942,2.19104
3629.70972,2.19521
3628.68001,2.19200
3627.65031,2.18788
3626.62061,2.18961
3625.59090,2.19035
3624.56120,2.18932
3623.53149,2.18874
3622.50179,2.18997
3621.47208,2.19393
3620.44238,2.19643
3619.41267,2.19676
3618.38297,2.20279
3617.35326,2.21321
3616.32356,2.21781
3615.29385,2.21394
3614.26415,2.20550
3613.23444,2.19898
3612.20474,2.20082
3611.17503,2.20966
3610.14533,2.22000
3609.11562,2.22646
3608.08592,2.22537
3607.05621,2.22144
3606.02651,2.21685
3604.99680,2.21339
3603.96710,2.21623
3602.93739,2.22309
3601.90769,2.22385
3600.87798,2.21872
3599.84828,2.21748
3598.81857,2.21795
3597.78887,2.21660
3596.75916,2.21818
3595.72946,2.22010
3594.69975,2.21764
3593.67005,2.21691
3592.64034,2.21888
3591.61064,2.21945
3590.58093,2.22278
3589.55123,2.23015
3588.52152,2.23166
3587.49182,2.22506
3586.46211,2.21798
3585.43241,2.21232
3584.40270,2.21073
3583.37300,2.21260
3582.34330,2.21668
3581.31359,2.22308
3580.28389,2.22797
3579.25418,2.23042
3578.22448,2.23209
3577.19477,2.23094
3576.16507,2.22708
3575.13536,2.22470
3574.10566,2.22685
3573.07595,2.23033
3572.04625,2.23013
3571.01654,2.22781
3569.98684,2.22586
3568.95713,2.22622
3567.92743,2.23178
3566.89772,2.23545
3565.86802,2.22760
3564.83831,2.21636
3563.80861,2.21245
3562.77890,2.21876
3561.74920,2.22909
3560.71949,2.23168
3559.68979,2.22290
3558.66008,2.21625
3557.63038,2.21745
3556.60067,2.22086
3555.57097,2.22531
3554.54126,2.22781
3553.51156,2.22528
3552.48185,2.22190
3551.45215,2.22089
3550.42244,2.22205
3549.39274,2.22406
3548.36303,2.22448
3547.33333,2.22403
3546.30362,2.22597
3545.27392,2.22799
3544.24421,2.22791
3543.21451,2.22593
3542.18480,2.22369
3541.15510,2.22362
3540.12539,2.22319
3539.09569,2.22440
3538.06599,2.22991
3537.03628,2.23023
3536.00658,2.22470
3534.97687,2.22644
3533.94717,2.23401
3532.91746,2.23736
3531.88776,2.23505
3530.85805,2.23111
3529.82835,2.22800
3528.79864,2.22649
3527.76894,2.22638
3526.73923,2.22719
3525.70953,2.22965
3524.67982,2.23289
3523.65012,2.23583
3522.62041,2.23736
3521.59071,2.23574
3520.56100,2.23072
3519.53130,2.22628
3518.50159,2.22493
3517.47189,2.22384
3516.44218,2.22400
3515.41248,2.22517
3514.38277,2.22499
3513.35307,2.22767
3512.32336,2.23169
3511.29366,2.23017
3510.26395,2.22797
3509.23425,2.22911
3508.20454,2.22755
3507.17484,2.22491
3506.14513,2.22414
3505.11543,2.22425
3504.08572,2.22563
3503.05602,2.22564
3502.02631,2.22411
3500.99661,2.22531
3499.96690,2.22884
3498.93720,2.23024
3497.90749,2.22794
3496.87779,2.22483
3495.84808,2.22082
3494.81838,2.21688
3493.78868,2.21810
3492.75897,2.22218
3491.72927,2.22496
3490.69956,2.22665
3489.66986,2.22518
3488.64015,2.22212
3487.61045,2.22139
3486.58074,2.22173
3485.55104,2.22368
3484.52133,2.22644
3483.49163,2.22736
3482.46192,2.22675
3481.43222,2.22423
3480.40251,2.22177
3479.37281,2.22103
3478.34310,2.22115
3477.31340,2.22168
3476.28369,2.22105
3475.25399,2.22035
3474.22428,2.22066
3473.19458,2.21866
3472.16487,2.21543
3471.13517,2.21729
3470.10546,2.22250
3469.07576,2.22416
3468.04605,2.22443
3467.01635,2.22522
3465.98664,2.22360
3464.95694,2.21919
3463.92723,2.21461
3462.89753,2.21572
3461.86782,2.22122
3460.83812,2.22163
3459.80841,2.21676
3458.77871,2.21400
3457.74900,2.21476
3456.71930,2.21656
3455.68959,2.21858
3454.65989,2.22041
3453.63018,2.22342
3452.60048,2.22638
3451.57077,2.22480
3450.54107,2.22085
3449.51136,2.21791
3448.48166,2.21464
3447.45196,2.21306
3446.42225,2.21281
3445.39255,2.21289
3444.36284,2.21664
3443.33314,2.22205
3442.30343,2.22338
3441.27373,2.21790
3440.24402,2.21126
3439.21432,2.21170
3438.18461,2.21772
3437.15491,2.22112
3436.12520,2.22017
3435.09550,2.21801
3434.06579,2.21712
3433.03609,2.21964
3432.00638,2.22177
3430.97668,2.21857
3429.94697,2.21473
3428.91727,2.21407
3427.88756,2.21216
3426.85786,2.20884
3425.82815,2.20820
3424.79845,2.21005
3423.76874,2.21215
3422.73904,2.21165
3421.70933,2.20979
3420.67963,2.20936
3419.64992,2.20851
3418.62022,2.20823
3417.59051,2.20891
3416.56081,2.20777
3415.53110,2.20632
3414.50140,2.20772
3413.47169,2.21188
3412.44199,2.21418
3411.41228,2.21250
3410.38258,2.20971
3409.35287,2.20824
3408.32317,2.20990
3407.29346,2.21118
3406.26376,2.20944
3405.23405,2.20966
3404.20435,2.21209
3403.17465,2.21010
3402.14494,2.20623
3401.11524,2.20543
3400.08553,2.20467
3399.05583,2.20383
3398.02612,2.20596
3396.99642,2.21171
3395.96671,2.21490
3394.93701,2.21079
3393.90730,2.20565
3392.87760,2.20256
3391.84789,2.19980
3390.81819,2.19928
3389.78848,2.20028
3388.75878,2.20111
3387.72907,2.20227
3386.69937,2.20335
3385.66966,2.20405
3384.63996,2.20309
3383.61025,2.20221
3382.58055,2.20334
3381.55084,2.20490
3380.52114,2.20610
3379.49143,2.20625
3378.46173,2.20462
3377.43202,2.20209
3376.40232,2.20090
3375.37261,2.20079
3374.34291,2.19944
3373.31320,2.19746
3372.28350,2.19802
3371.25379,2.20022
3370.22409,2.20151
3369.19438,2.20254
3368.16468,2.20249
3367.13497,2.20077
3366.10527,2.19914
3365.07556,2.19776
3364.04586,2.19590
3363.01615,2.19442
3361.98645,2.19611
3360.95674,2.20061
3359.92704,2.20141
3358.89734,2.19887
3357.86763,2.19764
3356.83793,2.19732
3355.80822,2.19654
3354.77852,2.19565
3353.74881,2.19691
3352.71911,2.19919
3351.68940,2.20085
3350.65970,2.20045
3349.62999,2.19757
3348.60029,2.19439
3347.57058,2.19267
3346.54088,2.19531
3345.51117,2.19982
3344.48147,2.20274
3343.45176,2.20278
3342.42206,2.20013
3341.39235,2.19804
3340.36265,2.19497
3339.33294,2.19189
3338.30324,2.19300
3337.27353,2.19567
3336.24383,2.19874
3335.21412,2.20135
3334.18442,2.19792
3333.15471,2.19402
3332.12501,2.19715
3331.09530,2.19874
3330.06560,2.19338
3329.03589,2.18870
3328.00619,2.18754
3326.97648,2.18748
3325.94678,2.18971
3324.91707,2.19411
3323.88737,2.19722
3322.85766,2.19806
3321.82796,2.19597
3320.79825,2.19262
3319.76855,2.19335
3318.73884,2.19658
3317.70914,2.19673
3316.67943,2.19351
3315.64973,2.18999
3314.62003,2.18603
3313.59032,2.18181
3312.56062,2.18228
3311.53091,2.18690
3310.50121,2.19012
3309.47150,2.19176
3308.44180,2.19321
3307.41209,2.19167
3306.38239,2.18733
3305.35268,2.18716
3304.32298,2.19299
3303.29327,2.19670
3302.26357,2.19420
3301.23386,2.19040
3300.20416,2.18882
3299.17445,2.18910
3298.14475,2.18917
3297.11504,2.18754
3296.08534,2.18617
3295.05563,2.18821
3294.02593,2.19095
3292.99622,2.18932
3291.96652,2.18635
3290.93681,2.18663
3289.90711,2.18933
3288.87740,2.18951
3287.84770,2.18538
3286.81799,2.18372
3285.78829,2.18666
3284.75858,2.18907
3283.72888,2.18975
3282.69917,2.19050
3281.66947,2.19148
3280.63976,2.19262
3279.61006,2.19333
3278.58035,2.19124
3277.55065,2.18894
3276.52094,2.19073
3275.49124,2.19283
3274.46153,2.19156
3273.43183,2.18951
3272.40212,2.18851
3271.37242,2.18847
3270.34271,2.18870
3269.31301,2.18590
3268.28331,2.18042
3267.25360,2.17878
3266.22390,2.18302
3265.19419,2.18745
3264.16449,2.18692
3263.13478,2.18302
3262.10508,2.18099
3261.07537,2.18319
3260.04567,2.18785
3259.01596,2.19297
3257.98626,2.19430
3256.95655,2.18874
3255.92685,2.18307
3254.89714,2.18266
3253.86744,2.18442
3252.83773,2.18566
3251.80803,2.18584
3250.77832,2.18550
3249.74862,2.18609
3248.71891,2.18729
3247.68921,2.18652
3246.65950,2.18313
3245.62980,2.18107
3244.60009,2.18224
3243.57039,2.18407
3242.54068,2.18590
3241.51098,2.18920
3240.48127,2.19205
3239.45157,2.19022
3238.42186,2.18696
3237.39216,2.18773
3236.36245,2.18938
3235.33275,2.18757
3234.30304,2.18421
3233.27334,2.18454
3232.24363,2.18709
3231.21393,2.18591
3230.18422,2.18475
3229.15452,2.18756
3228.12481,2.18936
3227.09511,2.18851
3226.06540,2.18801
3225.03570,2.18786
3224.00600,2.18706
3222.97629,2.18648
3221.94659,2.18675
3220.91688,2.18667
3219.88718,2.18502
3218.85747,2.18348
3217.82777,2.18226
3216.79806,2.18096
3215.76836,2.18139
3214.73865,2.18264
3213.70895,2.18322
3212.67924,2.18241
3211.64954,2.18097
3210.61983,2.18028
3209.59013,2.18026
3208.56042,2.18038
3207.53072,2.17981
3206.50101,2.17931
3205.47131,2.17924
3204.44160,2.18066
3203.41190,2.18245
3202.38219,2.18230
3201.35249,2.18342
3200.32278,2.18594
3199.29308,2.18689
3198.26337,2.18663
3197.23367,2.18469
3196.20396,2.18151
3195.17426,2.18184
3194.14455,2.18650
3193.11485,2.19010
3192.08514,2.18974
3191.05544,2.18745
3190.02573,2.18651
3188.99603,2.18724
3187.96632,2.18708
3186.93662,2.18561
3185.90691,2.18472
3184.87721,2.18407
3183.84750,2.18281
3182.81780,2.18297
3181.78809,2.18328
3180.75839,2.18190
3179.72869,2.18240
3178.69898,2.18318
3177.66928,2.18139
3176.63957,2.18050
3175.60987,2.18077
3174.58016,2.18195
3173.55046,2.18408
3172.52075,2.18545
3171.49105,2.18603
3170.46134,2.18598
3169.43164,2.18580
3168.40193,2.18528
3167.37223,2.18282
3166.34252,2.17932
3165.31282,2.17801
3164.28311,2.17894
3163.25341,2.18025
3162.22370,2.18156
3161.19400,2.18127
3160.16429,2.17906
3159.13459,2.17693
3158.10488,2.17515
3157.07518,2.17580
3156.04547,2.17910
3155.01577,2.18011
3153.98606,2.17925
3152.95636,2.17956
3151.92665,2.18060
3150.89695,2.18211
3149.86724,2.18468
3148.83754,2.18739
3147.80783,2.18779
3146.77813,2.18551
3145.74842,2.18280
3144.71872,2.18192
3143.68901,2.18133
3142.65931,2.18003
3141.62960,2.18053
3140.59990,2.18174
3139.57019,2.18132
3138.54049,2.18074
3137.51078,2.18200
3136.48108,2.18276
3135.45138,2.18135
3134.42167,2.18174
3133.39197,2.18395
3132.36226,2.18430
3131.33256,2.18360
3130.30285,2.18325
3129.27315,2.18247
3128.24344,2.17956
3127.21374,2.17697
3126.18403,2.17709
3125.15433,2.17554
3124.12462,2.17361
3123.09492,2.17690
3122.06521,2.18187
3121.03551,2.18314
3120.00580,2.18308
3118.97610,2.18212
3117.94639,2.17801
3116.91669,2.17541
3115.88698,2.17799
3114.85728,2.18162
3113.82757,2.18273
3112.79787,2.18348
3111.76816,2.18481
3110.73846,2.18445
3109.70875,2.18303
3108.67905,2.18303
3107.64934,2.18471
3106.61964,2.18521
3105.58993,2.18301
3104.56023,2.18168
3103.53052,2.18202
3102.50082,2.18108
3101.47111,2.17992
3100.44141,2.18060
3099.41170,2.18264
3098.38200,2.18512
3097.35229,2.18640
3096.32259,2.18592
3095.29288,2.18489
3094.26318,2.18521
3093.23347,2.18722
3092.20377,2.18642
3091.17406,2.18241
3090.14436,2.18128
3089.11466,2.18368
3088.08495,2.18495
3087.05525,2.18305
3086.02554,2.18049
3084.99584,2.18003
3083.96613,2.18033
3082.93643,2.18044
3081.90672,2.18192
3080.87702,2.18455
3079.84731,2.18668
3078.81761,2.18821
3077.78790,2.18887
3076.75820,2.18709
3075.72849,2.18378
3074.69879,2.18225
3073.66908,2.18333
3072.63938,2.18495
3071.60967,2.18557
3070.57997,2.18421
3069.55026,2.18230
3068.52056,2.18333
3067.49085,2.18644
3066.46115,2.18673
3065.43144,2.18351
3064.40174,2.18074
3063.37203,2.18061
3062.34233,2.18166
3061.31262,2.18240
3060.28292,2.18379
3059.25321,2.18542
3058.22351,2.18601
3057.19380,2.18596
3056.16410,2.18555
3055.13439,2.18535
3054.10469,2.18438
3053.07498,2.18220
3052.04528,2.18097
3051.01557,2.18173
3049.98587,2.18367
3048.95616,2.18536
3047.92646,2.18525
3046.89675,2.18479
3045.86705,2.18500
3044.83735,2.18428
3043.80764,2.18437
3042.77794,2.18667
3041.74823,2.18937
3040.71853,2.18951
3039.68882,2.18739
3038.65912,2.18595
3037.62941,2.18576
3036.59971,2.18784
3035.57000,2.19064
3034.54030,2.19035
3033.51059,2.18748
3032.48089,2.18678
3031.45118,2.18988
3030.42148,2.19304
3029.39177,2.19413
3028.36207,2.19135
3027.33236,2.18550
3026.30266,2.18329
3025.27295,2.18704
3024.24325,2.19148
3023.21354,2.19247
3022.18384,2.19163
3021.15413,2.19135
3020.12443,2.19091
3019.09472,2.19032
3018.06502,2.19127
3017.03531,2.19324
3016.00561,2.19433
3014.97590,2.19497
3013.94620,2.19574
3012.91649,2.19557
3011.88679,2.19596
3010.85708,2.19760
3009.82738,2.19845
3008.79767,2.19832
3007.76797,2.19749
3006.73826,2.19739
3005.70856,2.19903
3004.67885,2.20054
3003.64915,2.20115
3002.61944,2.20186
3001.58974,2.20195
3000.56004,2.20055
2999.53033,2.20035
2998.50063,2.20316
2997.47092,2.20611
2996.44122,2.20636
2995.41151,2.20573
2994.38181,2.20729
2993.35210,2.20959
2992.32240,2.20910
2991.29269,2.20680
2990.26299,2.20621
2989.23328,2.20760
2988.20358,2.21114
2987.17387,2.21581
2986.14417,2.21845
2985.11446,2.21804
2984.08476,2.21495
2983.05505,2.21217
2982.02535,2.21228
2980.99564,2.21500
2979.96594,2.21863
2978.93623,2.21965
2977.90653,2.21876
2976.87682,2.21962
2975.84712,2.22239
2974.81741,2.22534
2973.78771,2.22726
2972.75800,2.22919
2971.72830,2.23092
2970.69859,2.22945
2969.66889,2.22750
2968.63918,2.22934
2967.60948,2.23122
2966.57977,2.23077
2965.55007,2.23112
2964.52036,2.23235
2963.49066,2.23397
2962.46095,2.23602
2961.43125,2.23660
2960.40154,2.23673
2959.37184,2.23890
2958.34213,2.24077
2957.31243,2.23925
2956.28273,2.23556
2955.25302,2.23263
2954.22332,2.23266
2953.19361,2.23373
2952.16391,2.23227
2951.13420,2.23137
2950.10450,2.23469
2949.07479,2.23964
2948.04509,2.24225
2947.01538,2.24245
2945.98568,2.24250
2944.95597,2.24344
2943.92627,2.24512
2942.89656,2.24735
2941.86686,2.24898
2940.83715,2.24955
2939.80745,2.25030
2938.77774,2.25105
2937.74804,2.25167
2936.71833,2.25232
2935.68863,2.25130
2934.65892,2.24693
2933.62922,2.24207
2932.59951,2.23936
2931.56981,2.23646
2930.54010,2.23297
2929.51040,2.22906
2928.48069,2.22372
2927.45099,2.21769
2926.42128,2.21076
2925.39158,2.20281
2924.36187,2.19372
2923.33217,2.18307
2922.30246,2.17003
2921.27276,2.15266
2920.24305,2.13146
2919.21335,2.10824
2918.18364,2.08493
2917.15394,2.06571
2916.12423,2.05258
2915.09453,2.04332
2914.06482,2.03786
2913.03512,2.03705
2912.00541,2.03921
2910.97571,2.04443
2909.94601,2.05256
2908.91630,2.06054
2907.88660,2.06747
2906.85689,2.07455
2905.82719,2.08069
2904.79748,2.08483
2903.76778,2.08709
2902.73807,2.08802
2901.70837,2.08925
2900.67866,2.09095
2899.64896,2.09317
2898.61925,2.09602
2897.58955,2.09922
2896.55984,2.10157
2895.53014,2.10191
2894.50043,2.10249
2893.47073,2.10487
2892.44102,2.10724
2891.41132,2.10767
2890.38161,2.10666
2889.35191,2.10577
2888.32220,2.10725
2887.29250,2.11140
2886.26279,2.11603
2885.23309,2.11958
2884.20338,2.12056
2883.17368,2.12010
2882.14397,2.12098
2881.11427,2.12243
2880.08456,2.12316
2879.05486,2.12510
2878.02515,2.12824
2876.99545,2.13049
2875.96574,2.13205
2874.93604,2.13315
2873.90633,2.13377
2872.87663,2.13416
2871.84692,2.13441
2870.81722,2.13515
2869.78751,2.13575
2868.75781,2.13673
2867.72810,2.13929
2866.69840,2.14134
2865.66870,2.14132
2864.63899,2.14077
2863.60929,2.14253
2862.57958,2.14732
2861.54988,2.15115
2860.52017,2.15166
2859.49047,2.15135
2858.46076,2.15198
2857.43106,2.15318
2856.40135,2.15275
2855.37165,2.14879
2854.34194,2.14199
2853.31224,2.13302
2852.28253,2.12074
2851.25283,2.10315
2850.22312,2.08148
2849.19342,2.06152
2848.16371,2.04738
2847.13401,2.03946
2846.10430,2.03714
2845.07460,2.03876
2844.04489,2.04249
2843.01519,2.04737
2841.98548,2.05242
2840.95578,2.05741
2839.92607,2.06212
2838.89637,2.06515
2837.86666,2.06730
2836.83696,2.07090
2835.80725,2.07414
2834.77755,2.07488
2833.74784,2.07517
2832.71814,2.07696
2831.68843,2.07965
2830.65873,2.08180
2829.62902,2.08268
2828.59932,2.08169
2827.56961,2.08047
2826.53991,2.08214
2825.51020,2.08534
2824.48050,2.08714
2823.45079,2.08812
2822.42109,2.09016
2821.39139,2.09225
2820.36168,2.09201
2819.33198,2.09158
2818.30227,2.09343
2817.27257,2.09537
2816.24286,2.09690
2815.21316,2.09801
2814.18345,2.09697
2813.15375,2.09540
2812.12404,2.09510
2811.09434,2.09562
2810.06463,2.09630
2809.03493,2.09617
2808.00522,2.09547
2806.97552,2.09575
2805.94581,2.09640
2804.91611,2.09711
2803.88640,2.09832
2802.85670,2.09894
2801.82699,2.09914
2800.79729,2.09937
2799.76758,2.09993
2798.73788,2.10096
2797.70817,2.10161
2796.67847,2.10218
2795.64876,2.10251
2794.61906,2.10137
2793.58935,2.09990
2792.55965,2.09999
2791.52994,2.10118
2790.50024,2.10172
2789.47053,2.10093
2788.44083,2.10023
2787.41112,2.10100
2786.38142,2.10224
2785.35171,2.10298
2784.32201,2.10327
2783.29230,2.10220
2782.26260,2.10071
2781.23289,2.10040
2780.20319,2.10047
2779.17348,2.10082
2778.14378,2.10178
2777.11408,2.10249
2776.08437,2.10252
2775.05467,2.10233
2774.02496,2.10240
2772.99526,2.10246
2771.96555,2.10181
2770.93585,2.10136
2769.90614,2.10100
2768.87644,2.09917
2767.84673,2.09725
2766.81703,2.09717
2765.78732,2.09882
2764.75762,2.10153
2763.72791,2.10360
2762.69821,2.10401
2761.66850,2.10435
2760.63880,2.10480
2759.60909,2.10306
2758.57939,2.10083
2757.54968,2.10088
2756.51998,2.10150
2755.49027,2.10138
2754.46057,2.10105
2753.43086,2.10084
2752.40116,2.10084
2751.37145,2.10027
2750.34175,2.09951
2749.31204,2.09975
2748.28234,2.10011
2747.25263,2.10000
2746.22293,2.10075
2745.19322,2.10212
2744.16352,2.10333
2743.13381,2.10379
2742.10411,2.10326
2741.07440,2.10317
2740.04470,2.10331
2739.01499,2.10224
2737.98529,2.10122
2736.95558,2.10201
2735.92588,2.10315
2734.89617,2.10264
2733.86647,2.10094
2732.83676,2.10044
2731.80706,2.10085
2730.77736,2.10040
2729.74765,2.10039
2728.71795,2.10059
2727.68824,2.09982
2726.65854,2.09992
2725.62883,2.10171
2724.59913,2.10249
2723.56942,2.10120
2722.53972,2.10039
2721.51001,2.10069
2720.48031,2.09991
2719.45060,2.09745
2718.42090,2.09586
2717.39119,2.09720
2716.36149,2.09946
2715.33178,2.10003
2714.30208,2.09970
2713.27237,2.10080
2712.24267,2.10287
2711.21296,2.10279
2710.18326,2.10004
2709.15355,2.09740
2708.12385,2.09717
2707.09414,2.09791
2706.06444,2.09844
2705.03473,2.09988
2704.00503,2.10056
2702.97532,2.09963
2701.94562,2.09897
2700.91591,2.09834
2699.88621,2.09702
2698.85650,2.09606
2697.82680,2.09701
2696.79709,2.09847
2695.76739,2.09773
2694.73768,2.09726
2693.70798,2.09834
2692.67827,2.09850
2691.64857,2.09829
2690.61886,2.09836
2689.58916,2.09929
2688.55945,2.10083
2687.52975,2.10085
2686.50005,2.10065
2685.47034,2.10186
2684.44064,2.10229
2683.41093,2.10058
2682.38123,2.09922
2681.35152,2.10040
2680.32182,2.10228
2679.29211,2.10269
2678.26241,2.10204
2677.23270,2.10108
2676.20300,2.09964
2675.17329,2.09772
2674.14359,2.09683
2673.11388,2.09748
2672.08418,2.09770
2671.05447,2.09718
2670.02477,2.09655
2668.99506,2.09524
2667.96536,2.09418
2666.93565,2.09427
2665.90595,2.09523
2664.87624,2.09678
2663.84654,2.09780
2662.81683,2.09765
2661.78713,2.09722
2660.75742,2.09692
2659.72772,2.09545
2658.69801,2.09348
2657.66831,2.09403
2656.63860,2.09607
2655.60890,2.09684
2654.57919,2.09699
2653.54949,2.09710
2652.51978,2.09665
2651.49008,2.09561
2650.46037,2.09499
2649.43067,2.09560
2648.40096,2.09631
2647.37126,2.09603
2646.34155,2.09530
2645.31185,2.09520
2644.28214,2.09496
2643.25244,2.09360
2642.22274,2.09223
2641.19303,2.09117
2640.16333,2.09107
2639.13362,2.09325
2638.10392,2.09549
2637.07421,2.09572
2636.04451,2.09557
2635.01480,2.09572
2633.98510,2.09513
2632.95539,2.09360
2631.92569,2.09183
2630.89598,2.09053
2629.86628,2.09049
2628.83657,2.09123
2627.80687,2.09088
2626.77716,2.09020
2625.74746,2.09108
2624.71775,2.09296
2623.68805,2.09405
2622.65834,2.09335
2621.62864,2.09186
2620.59893,2.09140
2619.56923,2.09197
2618.53952,2.09290
2617.50982,2.09453
2616.48011,2.09525
2615.45041,2.09360
2614.42070,2.09212
2613.39100,2.09208
2612.36129,2.09217
2611.33159,2.09210
2610.30188,2.09185
2609.27218,2.09126
2608.24247,2.09069
2607.21277,2.09000
2606.18306,2.08945
2605.15336,2.08953
2604.12365,2.09003
2603.09395,2.09037
2602.06424,2.09023
2601.03454,2.09083
2600.00483,2.09154
2598.97513,2.09110
2597.94543,2.09084
2596.91572,2.09168
2595.88602,2.09316
2594.85631,2.09401
2593.82661,2.09296
2592.79690,2.09113
2591.76720,2.09111
2590.73749,2.09201
2589.70779,2.09225
2588.67808,2.09345
2587.64838,2.09487
2586.61867,2.09454
2585.58897,2.09327
2584.55926,2.09169
2583.52956,2.09015
2582.49985,2.09038
2581.47015,2.09161
2580.44044,2.09125
2579.41074,2.08900
2578.38103,2.08634
2577.35133,2.08638
2576.32162,2.08917
2575.29192,2.09104
2574.26221,2.09103
2573.23251,2.09071
2572.20280,2.09025
2571.17310,2.08909
2570.14339,2.08865
2569.11369,2.08958
2568.08398,2.09034
2567.05428,2.08995
2566.02457,2.08866
2564.99487,2.08783
2563.96516,2.08862
2562.93546,2.08959
2561.90575,2.08909
2560.87605,2.08829
2559.84634,2.08787
2558.81664,2.08715
2557.78693,2.08712
2556.75723,2.08746
2555.72752,2.08619
2554.69782,2.08499
2553.66811,2.08528
2552.63841,2.08517
2551.60871,2.08505
2550.57900,2.08607
2549.54930,2.08745
2548.51959,2.08842
2547.48989,2.08865
2546.46018,2.08827
2545.43048,2.08698
2544.40077,2.08532
2543.37107,2.08471
2542.34136,2.08541
2541.31166,2.08677
2540.28195,2.08747
2539.25225,2.08699
2538.22254,2.08602
2537.19284,2.08552
2536.16313,2.08639
2535.13343,2.08836
2534.10372,2.09067
2533.07402,2.09184
2532.04431,2.09088
2531.01461,2.08994
2529.98490,2.08989
2528.95520,2.08939
2527.92549,2.08971
2526.89579,2.09114
2525.86608,2.09138
2524.83638,2.09046
2523.80667,2.09021
2522.77697,2.09039
2521.74726,2.09044
2520.71756,2.09103
2519.68785,2.09200
2518.65815,2.09257
2517.62844,2.09239
2516.59874,2.09159
2515.56903,2.09064
2514.53933,2.09051
2513.50962,2.09162
2512.47992,2.09260
2511.45021,2.09321
2510.42051,2.09464
2509.39080,2.09582
2508.36110,2.09515
2507.33140,2.09370
2506.30169,2.09224
2505.27199,2.09101
2504.24228,2.09065
2503.21258,2.09056
2502.18287,2.08979
2501.15317,2.08864
2500.12346,2.08765
2499.09376,2.08648
2498.06405,2.08558
2497.03435,2.08562
2496.00464,2.08655
2494.97494,2.08648
2493.94523,2.08382
2492.91553,2.08034
2491.88582,2.07820
2490.85612,2.07792
2489.82641,2.07772
2488.79671,2.07647
2487.76700,2.07591
2486.73730,2.07763
2485.70759,2.07984
2484.67789,2.07898
2483.64818,2.07601
2482.61848,2.07508
2481.58877,2.07655
2480.55907,2.07669
2479.52936,2.07477
2478.49966,2.07368
2477.46995,2.07386
2476.44025,2.07378
2475.41054,2.07318
2474.38084,2.07221
2473.35113,2.07154
2472.32143,2.07195
2471.29172,2.07313
2470.26202,2.07414
2469.23231,2.07393
2468.20261,2.07298
2467.17290,2.07173
2466.14320,2.07081
2465.11349,2.07121
2464.08379,2.07199
2463.05409,2.07108
2462.02438,2.06854
2460.99468,2.06783
2459.96497,2.06888
2458.93527,2.06808
2457.90556,2.06662
2456.87586,2.06772
2455.84615,2.06976
2454.81645,2.06979
2453.78674,2.06810
2452.75704,2.06651
2451.72733,2.06627
2450.69763,2.06658
2449.66792,2.06694
2448.63822,2.06707
2447.60851,2.06590
2446.57881,2.06493
2445.54910,2.06529
2444.51940,2.06586
2443.48969,2.06654
2442.45999,2.06720
2441.43028,2.06740
2440.40058,2.06692
2439.37087,2.06647
2438.34117,2.06734
2437.31146,2.06850
2436.28176,2.06853
2435.25205,2.06774
2434.22235,2.06632
2433.19264,2.06563
2432.16294,2.06685
2431.13323,2.06813
2430.10353,2.06789
2429.07382,2.06661
2428.04412,2.06493
2427.01441,2.06324
2425.98471,2.06226
2424.95500,2.06246
2423.92530,2.06363
2422.89559,2.06502
2421.86589,2.06593
2420.83618,2.06612
2419.80648,2.06518
2418.77678,2.06356
2417.74707,2.06304
2416.71737,2.06346
2415.68766,2.06311
2414.65796,2.06296
2413.62825,2.06413
2412.59855,2.06482
2411.56884,2.06402
2410.53914,2.06250
2409.50943,2.06123
2408.47973,2.06058
2407.45002,2.06057
2406.42032,2.06077
2405.39061,2.06049
2404.36091,2.06035
2403.33120,2.06061
2402.30150,2.06010
2401.27179,2.05929
2400.24209,2.05995
2399.21238,2.06189
2398.18268,2.06257
2397.15297,2.06088
2396.12327,2.05907
2395.09356,2.05879
2394.06386,2.05873
2393.03415,2.05810
2392.00445,2.05778
2390.97474,2.05791
2389.94504,2.05840
2388.91533,2.05901
2387.88563,2.05857
2386.85592,2.05748
2385.82622,2.05719
2384.79651,2.05703
2383.76681,2.05706
2382.73710,2.05811
2381.70740,2.05853
2380.67769,2.05757
2379.64799,2.05723
2378.61828,2.05877
2377.58858,2.06111
2376.55887,2.06246
2375.52917,2.06169
2374.49946,2.05951
2373.46976,2.05727
2372.44006,2.05601
2371.41035,2.05598
2370.38065,2.05603
2369.35094,2.05674
2368.32124,2.05834
2367.29153,2.05930
2366.26183,2.05970
2365.23212,2.06221
2364.20242,2.06578
2363.17271,2.06454
2362.14301,2.05916
2361.11330,2.05645
2360.08360,2.06005
2359.05389,2.06434
2358.02419,2.06330
2356.99448,2.05866
2355.96478,2.05245
2354.93507,2.04807
2353.90537,2.04909
2352.87566,2.05196
2351.84596,2.05405
2350.81625,2.05440
2349.78655,2.05161
2348.75684,2.04983
2347.72714,2.05129
2346.69743,2.05298
2345.66773,2.05363
2344.63802,2.05455
2343.60832,2.05465
2342.57861,2.05298
2341.54891,2.05252
2340.51920,2.05452
2339.48950,2.05777
2338.45979,2.05963
2337.43009,2.05822
2336.40038,2.05597
2335.37068,2.05443
2334.34097,2.05358
2333.31127,2.05338
2332.28156,2.05223
2331.25186,2.04934
2330.22215,2.04769
2329.19245,2.04937
2328.16275,2.05086
2327.13304,2.05038
2326.10334,2.05034
2325.07363,2.05066
2324.04393,2.05081
2323.01422,2.04999
2321.98452,2.04726
2320.95481,2.04652
2319.92511,2.04932
2318.89540,2.05123
2317.86570,2.05005
2316.83599,2.04820
2315.80629,2.04631
2314.77658,2.04487
2313.74688,2.04627
2312.71717,2.04779
2311.68747,2.04651
2310.65776,2.04520
2309.62806,2.04495
2308.59835,2.04459
2307.56865,2.04382
2306.53894,2.04320
2305.50924,2.04329
2304.47953,2.04325
2303.44983,2.04319
2302.42012,2.04422
2301.39042,2.04523
2300.36071,2.04404
2299.33101,2.04159
2298.30130,2.04109
2297.27160,2.04214
2296.24189,2.04176
2295.21219,2.04087
2294.18248,2.04191
2293.15278,2.04414
2292.12307,2.04544
2291.09337,2.04506
2290.06366,2.04360
2289.03396,2.04205
2288.00425,2.04199
2286.97455,2.04310
2285.94484,2.04270
2284.91514,2.04106
2283.88544,2.04047
2282.85573,2.04065
2281.82603,2.04057
2280.79632,2.04035
2279.76662,2.04069
2278.73691,2.04137
2277.70721,2.04077
2276.67750,2.03924
2275.64780,2.03854
2274.61809,2.03923
2273.58839,2.04076
2272.55868,2.04273
2271.52898,2.04497
2270.49927,2.04554
2269.46957,2.04322
2268.43986,2.04066
2267.41016,2.04003
2266.38045,2.04028
2265.35075,2.04012
2264.32104,2.03968
2263.29134,2.04013
2262.26163,2.04166
2261.23193,2.04222
2260.20222,2.04130
2259.17252,2.04083
2258.14281,2.04042
2257.11311,2.03929
2256.08340,2.03891
2255.05370,2.03946
2254.02399,2.04014
2252.99429,2.04068
2251.96458,2.04077
2250.93488,2.04009
2249.90517,2.03944
2248.87547,2.03962
2247.84576,2.03916
2246.81606,2.03788
2245.78635,2.03755
2244.75665,2.03858
2243.72694,2.03969
2242.69724,2.03979
2241.66753,2.03943
2240.63783,2.04005
2239.60813,2.04179
2238.57842,2.04325
2237.54872,2.04375
2236.51901,2.04364
2235.48931,2.04317
2234.45960,2.04220
2233.42990,2.04166
2232.40019,2.04238
2231.37049,2.04246
2230.34078,2.04149
2229.31108,2.04159
2228.28137,2.04199
2227.25167,2.04117
2226.22196,2.04020
2225.19226,2.04016
2224.16255,2.03997
2223.13285,2.03935
2222.10314,2.03949
2221.07344,2.04007
2220.04373,2.04065
2219.01403,2.04100
2217.98432,2.04096
2216.95462,2.04183
2215.92491,2.04352
2214.89521,2.04354
2213.86550,2.04238
2212.83580,2.04289
2211.80609,2.04389
2210.77639,2.04350
2209.74668,2.04325
2208.71698,2.04387
2207.68727,2.04391
2206.65757,2.04400
2205.62786,2.04510
2204.59816,2.04570
2203.56845,2.04537
2202.53875,2.04417
2201.50904,2.04275
2200.47934,2.04352
2199.44963,2.04534
2198.41993,2.04520
2197.39022,2.04394
2196.36052,2.04332
2195.33081,2.04352
2194.30111,2.04339
2193.27141,2.04250
2192.24170,2.04231
2191.21200,2.04322
2190.18229,2.04447
2189.15259,2.04589
2188.12288,2.04676
2187.09318,2.04510
2186.06347,2.04232
2185.03377,2.04165
2184.00406,2.04211
2182.97436,2.04205
2181.94465,2.04237
2180.91495,2.04364
2179.88524,2.04403
2178.85554,2.04335
2177.82583,2.04360
2176.79613,2.04402
2175.76642,2.04380
2174.73672,2.04310
2173.70701,2.04213
2172.67731,2.04239
2171.64760,2.04377
2170.61790,2.04503
2169.58819,2.04550
2168.55849,2.04460
2167.52878,2.04334
2166.49908,2.04341
2165.46937,2.04466
2164.43967,2.04530
2163.40996,2.04452
2162.38026,2.04389
2161.35055,2.04474
2160.32085,2.04618
2159.29114,2.04679
2158.26144,2.04637
2157.23173,2.04572
2156.20203,2.04551
2155.17232,2.04552
2154.14262,2.04496
2153.11291,2.04427
2152.08321,2.04539
2151.05350,2.04840
2150.02380,2.05009
2148.99410,2.04933
2147.96439,2.04869
2146.93469,2.04898
2145.90498,2.04944
2144.87528,2.04892
2143.84557,2.04721
2142.81587,2.04686
2141.78616,2.04797
2140.75646,2.04774
2139.72675,2.04685
2138.69705,2.04773
2137.66734,2.04960
2136.63764,2.05066
2135.60793,2.05046
2134.57823,2.04942
2133.54852,2.04897
2132.51882,2.04996
2131.48911,2.05068
2130.45941,2.04999
2129.42970,2.04889
2128.40000,2.04752
2127.37029,2.04666
2126.34059,2.04717
2125.31088,2.04743
2124.28118,2.04680
2123.25147,2.04646
2122.22177,2.04604
2121.19206,2.04499
2120.16236,2.04425
2119.13265,2.04392
2118.10295,2.04382
2117.07324,2.04437
2116.04354,2.04469
2115.01383,2.04380
2113.98413,2.04272
2112.95442,2.04258
2111.92472,2.04326
2110.89501,2.04406
2109.86531,2.04478
2108.83560,2.04450
2107.80590,2.04300
2106.77619,2.04292
2105.74649,2.04412
2104.71679,2.04383
2103.68708,2.04280
2102.65738,2.04319
2101.62767,2.04453
2100.59797,2.04496
2099.56826,2.04499
2098.53856,2.04599
2097.50885,2.04754
2096.47915,2.04797
2095.44944,2.04620
2094.41974,2.04433
2093.39003,2.04415
2092.36033,2.04494
2091.33062,2.04617
2090.30092,2.04722
2089.27121,2.04757
2088.24151,2.04669
2087.21180,2.04509
2086.18210,2.04441
2085.15239,2.04439
2084.12269,2.04433
2083.09298,2.04419
2082.06328,2.04407
2081.03357,2.04407
2080.00387,2.04433
2078.97416,2.04510
2077.94446,2.04535
2076.91475,2.04431
2075.88505,2.04315
2074.85534,2.04330
2073.82564,2.04457
2072.79593,2.04570
2071.76623,2.04647
2070.73652,2.04766
2069.70682,2.04808
2068.67711,2.04665
2067.64741,2.04662
2066.61770,2.04876
2065.58800,2.04948
2064.55829,2.04854
2063.52859,2.04746
2062.49888,2.04634
2061.46918,2.04570
2060.43948,2.04578
2059.40977,2.04637
2058.38007,2.04711
2057.35036,2.04715
2056.32066,2.04585
2055.29095,2.04371
2054.26125,2.04273
2053.23154,2.04412
2052.20184,2.04602
2051.17213,2.04623
2050.14243,2.04593
2049.11272,2.04647
2048.08302,2.04706
2047.05331,2.04685
2046.02361,2.04533
2044.99390,2.04421
2043.96420,2.04513
2042.93449,2.04629
2041.90479,2.04573
2040.87508,2.04372
2039.84538,2.04200
2038.81567,2.04103
2037.78597,2.04011
2036.75626,2.03919
2035.72656,2.03778
2034.69685,2.03640
2033.66715,2.03676
2032.63744,2.03844
2031.60774,2.03979
2030.57803,2.03953
2029.54833,2.03807
2028.51862,2.03776
2027.48892,2.03929
2026.45921,2.04024
2025.42951,2.03925
2024.39980,2.03795
2023.37010,2.03741
2022.34039,2.03704
2021.31069,2.03616
2020.28098,2.03609
2019.25128,2.03698
2018.22157,2.03639
2017.19187,2.03522
2016.16216,2.03580
2015.13246,2.03659
2014.10276,2.03602
2013.07305,2.03515
2012.04335,2.03518
2011.01364,2.03593
2009.98394,2.03601
2008.95423,2.03541
2007.92453,2.03547
2006.89482,2.03569
2005.86512,2.03518
2004.83541,2.03487
2003.80571,2.03532
2002.77600,2.03564
2001.74630,2.03508
2000.71659,2.03428
1999.68689,2.03408
1998.65718,2.03442
1997.62748,2.03469
1996.59777,2.03467
1995.56807,2.03523
1994.53836,2.03557
1993.50866,2.03437
1992.47895,2.03348
1991.44925,2.03378
1990.41954,2.03404
1989.38984,2.03456
1988.36013,2.03544
1987.33043,2.03596
1986.30072,2.03545
1985.27102,2.03408
1984.24131,2.03313
1983.21161,2.03294
1982.18190,2.03314
1981.15220,2.03328
1980.12249,2.03304
1979.09279,2.03313
1978.06308,2.03323
1977.03338,2.03256
1976.00367,2.03225
1974.97397,2.03286
1973.94426,2.03369
1972.91456,2.03489
1971.88485,2.03549
1970.85515,2.03477
1969.82545,2.03378
1968.79574,2.03286
1967.76604,2.03221
1966.73633,2.03283
1965.70663,2.03446
1964.67692,2.03509
1963.64722,2.03466
1962.61751,2.03442
1961.58781,2.03395
1960.55810,2.03333
1959.52840,2.03396
1958.49869,2.03539
1957.46899,2.03590
1956.43928,2.03512
1955.40958,2.03389
1954.37987,2.03336
1953.35017,2.03372
1952.32046,2.03330
1951.29076,2.03211
1950.26105,2.03185
1949.23135,2.03221
1948.20164,2.03303
1947.17194,2.03354
1946.14223,2.03328
1945.11253,2.03312
1944.08282,2.03263
1943.05312,2.03206
1942.02341,2.03160
1940.99371,2.03159
1939.96400,2.03313
1938.93430,2.03467
1937.90459,2.03441
1936.87489,2.03408
1935.84518,2.03491
1934.81548,2.03503
1933.78577,2.03424
1932.75607,2.03396
1931.72636,2.03363
1930.69666,2.03352
1929.66695,2.03380
1928.63725,2.03322
1927.60754,2.03240
1926.57784,2.03189
1925.54814,2.03127
1924.51843,2.03062
1923.48873,2.03097
1922.45902,2.03282
1921.42932,2.03390
1920.39961,2.03316
1919.36991,2.03137
1918.34020,2.03070
1917.31050,2.03279
1916.28079,2.03470
1915.25109,2.03494
1914.22138,2.03490
1913.19168,2.03542
1912.16197,2.03536
1911.13227,2.03475
1910.10256,2.03497
1909.07286,2.03558
1908.04315,2.03628
1907.01345,2.03645
1905.98374,2.03592
1904.95404,2.03655
1903.92433,2.03761
1902.89463,2.03732
1901.86492,2.03603
1900.83522,2.03488
1899.80551,2.03469
1898.77581,2.03472
1897.74610,2.03420
1896.71640,2.03410
1895.68669,2.03501
1894.65699,2.03584
1893.62728,2.03658
1892.59758,2.03736
1891.56787,2.03715
1890.53817,2.03593
1889.50846,2.03475
1888.47876,2.03513
1887.44905,2.03677
1886.41935,2.03772
1885.38964,2.03693
1884.35994,2.03590
1883.33023,2.03608
1882.30053,2.03643
1881.27083,2.03643
1880.24112,2.03646
1879.21142,2.03605
1878.18171,2.03555
1877.15201,2.03545
1876.12230,2.03607
1875.09260,2.03760
1874.06289,2.03885
1873.03319,2.03899
1872.00348,2.03815
1870.97378,2.03757
1869.94407,2.03868
1868.91437,2.04035
1867.88466,2.04009
1866.85496,2.03905
1865.82525,2.03900
1864.79555,2.03964
1863.76584,2.03980
1862.73614,2.03917
1861.70643,2.03892
1860.67673,2.03952
1859.64702,2.03981
1858.61732,2.03967
1857.58761,2.04001
1856.55791,2.04101
1855.52820,2.04210
1854.49850,2.04248
1853.46879,2.04260
1852.43909,2.04296
1851.40938,2.04311
1850.37968,2.04322
1849.34997,2.04306
1848.32027,2.04223
1847.29056,2.04209
1846.26086,2.04358
1845.23115,2.04517
1844.20145,2.04429
1843.17174,2.04322
1842.14204,2.04474
1841.11233,2.04617
1840.08263,2.04702
1839.05292,2.04869
1838.02322,2.05052
1836.99351,2.05125
1835.96381,2.05069
1834.93411,2.05012
1833.90440,2.05025
1832.87470,2.05036
1831.84499,2.05008
1830.81529,2.04924
1829.78558,2.04923
1828.75588,2.05155
1827.72617,2.05345
1826.69647,2.05390
1825.66676,2.05382
1824.63706,2.05387
1823.60735,2.05412
1822.57765,2.05458
1821.54794,2.05530
1820.51824,2.05646
1819.48853,2.05789
1818.45883,2.05956
1817.42912,2.06185
1816.39942,2.06402
1815.36971,2.06496
1814.34001,2.06500
1813.31030,2.06520
1812.28060,2.06553
1811.25089,2.06605
1810.22119,2.06799
1809.19148,2.07047
1808.16178,2.07169
1807.13207,2.07290
1806.10237,2.07461
1805.07266,2.07540
1804.04296,2.07696
1803.01325,2.07950
1801.98355,2.08058
1800.95384,2.08246
1799.92414,2.08707
1798.89443,2.09099
1797.86473,2.09318
1796.83502,2.09447
1795.80532,2.09316
1794.77561,2.09077
1793.74591,2.09047
1792.71620,2.09235
1791.68650,2.09453
1790.65680,2.09507
1789.62709,2.09471
1788.59739,2.09472
1787.56768,2.09526
1786.53798,2.09554
1785.50827,2.09548
1784.47857,2.09611
1783.44886,2.09675
1782.41916,2.09665
1781.38945,2.09724
1780.35975,2.09841
1779.33004,2.09752
1778.30034,2.09614
1777.27063,2.09683
1776.24093,2.09777
1775.21122,2.09674
1774.18152,2.09602
1773.15181,2.09790
1772.12211,2.10104
1771.09240,2.10122
1770.06270,2.09992
1769.03299,2.09976
1768.00329,2.10174
1766.97358,2.10425
1765.94388,2.10574
1764.91417,2.10595
1763.88447,2.10434
1762.85476,2.10369
1761.82506,2.10681
1760.79535,2.10976
1759.76565,2.11060
1758.73594,2.11134
1757.70624,2.11268
1756.67653,2.11445
1755.64683,2.11460
1754.61712,2.11416
1753.58742,2.11448
1752.55771,2.11532
1751.52801,2.11683
1750.49830,2.11746
1749.46860,2.11733
1748.43889,2.11693
1747.40919,2.11544
1746.37949,2.11512
1745.34978,2.11521
1744.32008,2.11468
1743.29037,2.11528
1742.26067,2.11726
1741.23096,2.11838
1740.20126,2.11660
1739.17155,2.11377
1738.14185,2.11253
1737.11214,2.11083
1736.08244,2.10951
1735.05273,2.10925
1734.02303,2.10885
1732.99332,2.10876
1731.96362,2.10760
1730.93391,2.10460
1729.90421,2.10223
1728.87450,2.10201
1727.84480,2.10161
1726.81509,2.10126
1725.78539,2.10176
1724.75568,2.10093
1723.72598,2.09777
1722.69627,2.09520
1721.66657,2.09395
1720.63686,2.09252
1719.60716,2.09145
1718.57745,2.09041
1717.54775,2.08687
1716.51804,2.08364
1715.48834,2.08278
1714.45863,2.08246
1713.42893,2.08213
1712.39922,2.08211
1711.36952,2.08047
1710.33981,2.07588
1709.31011,2.07194
1708.28040,2.07092
1707.25070,2.07004
1706.22099,2.06600
1705.19129,2.05892
1704.16158,2.05379
1703.13188,2.05158
1702.10218,2.05022
1701.07247,2.05051
1700.04277,2.05024
1699.01306,2.04544
1697.98336,2.04364
1696.95365,2.04343
1695.92395,2.04081
1694.89424,2.03915
1693.86454,2.04043
1692.83483,2.04059
1691.80513,2.03981
1690.77542,2.03962
1689.74572,2.03811
1688.71601,2.03575
1687.68631,2.03655
1686.65660,2.03858
1685.62690,2.03893
1684.59719,2.03624
1683.56749,2.03537
1682.53778,2.03803
1681.50808,2.04000
1680.47837,2.04128
1679.44867,2.04074
1678.41896,2.04014
1677.38926,2.04008
1676.35955,2.03986
1675.32985,2.03991
1674.30014,2.03917
1673.27044,2.03804
1672.24073,2.03705
1671.21103,2.03665
1670.18132,2.03765
1669.15162,2.03640
1668.12191,2.03325
1667.09221,2.03396
1666.06250,2.03650
1665.03280,2.03818
1664.00309,2.03882
1662.97339,2.03900
1661.94368,2.03743
1660.91398,2.03579
1659.88427,2.03647
1658.85457,2.03796
1657.82486,2.03818
1656.79516,2.03716
1655.76546,2.03675
1654.73575,2.03868
1653.70605,2.04358
1652.67634,2.04368
1651.64664,2.03934
1650.61693,2.03808
1649.58723,2.03786
1648.55752,2.03838
1647.52782,2.04087
1646.49811,2.04394
1645.46841,2.04269
1644.43870,2.03879
1643.40900,2.03629
1642.37929,2.03589
1641.34959,2.03615
1640.31988,2.03631
1639.29018,2.03682
1638.26047,2.03765
1637.23077,2.03923
1636.20106,2.04135
1635.17136,2.03781
1634.14165,2.03241
1633.11195,2.03141
1632.08224,2.03155
1631.05254,2.03152
1630.02283,2.03132
1628.99313,2.03087
1627.96342,2.03060
1626.93372,2.03120
1625.90401,2.03297
1624.87431,2.03515
1623.84460,2.03621
1622.81490,2.03486
1621.78519,2.03281
1620.75549,2.03155
1619.72578,2.03156
1618.69608,2.03299
1617.66637,2.03532
1616.63667,2.03525
1615.60696,2.03164
1614.57726,2.03077
1613.54755,2.03202
1612.51785,2.03316
1611.48815,2.03391
1610.45844,2.03452
1609.42874,2.03402
1608.39903,2.03254
1607.36933,2.03176
1606.33962,2.03204
1605.30992,2.03196
1604.28021,2.03158
1603.25051,2.03281
1602.22080,2.03462
1601.19110,2.03453
1600.16139,2.03357
1599.13169,2.03339
1598.10198,2.03334
1597.07228,2.03293
1596.04257,2.03317
1595.01287,2.03407
1593.98316,2.03430
1592.95346,2.03395
1591.92375,2.03399
1590.89405,2.03410
1589.86434,2.03426
1588.83464,2.03449
1587.80493,2.03447
1586.77523,2.03446
1585.74552,2.03491
1584.71582,2.03482
1583.68611,2.03441
1582.65641,2.03537
1581.62670,2.03600
1580.59700,2.03572
1579.56729,2.03618
1578.53759,2.03672
1577.50788,2.03674
1576.47818,2.03586
1575.44847,2.03400
1574.41877,2.03350
1573.38906,2.03337
1572.35936,2.03355
1571.32965,2.03528
1570.29995,2.03829
1569.27024,2.03936
1568.24054,2.03840
1567.21084,2.03892
1566.18113,2.03954
1565.15143,2.03856
1564.12172,2.03738
1563.09202,2.03770
1562.06231,2.03829
1561.03261,2.04006
1560.00290,2.05022
1558.97320,2.07008
1557.94349,2.05453
1556.91379,2.04005
1555.88408,2.03843
1554.85438,2.04120
1553.82467,2.04101
1552.79497,2.03683
1551.76526,2.03424
1550.73556,2.03410
1549.70585,2.03477
1548.67615,2.03576
1547.64644,2.03768
1546.61674,2.03898
1545.58703,2.03872
1544.55733,2.03756
1543.52762,2.03602
1542.49792,2.03423
1541.46821,2.03398
1540.43851,2.03585
1539.40880,2.03071
1538.37910,2.02013
1537.34939,2.01607
1536.31969,2.01492
1535.28998,2.01572
1534.26028,2.01978
1533.23057,2.02535
1532.20087,2.02688
1531.17116,2.02594
1530.14146,2.02490
1529.11175,2.02492
1528.08205,2.02507
1527.05234,2.02532
1526.02264,2.02778
1524.99293,2.03106
1523.96323,2.03398
1522.93353,2.03715
1521.90382,2.03848
1520.87412,2.03698
1519.84441,2.03576
1518.81471,2.03587
1517.78500,2.03866
1516.75530,2.04169
1515.72559,2.04110
1514.69589,2.04069
1513.66618,2.04080
1512.63648,2.04106
1511.60677,2.04165
1510.57707,2.04323
1509.54736,2.04656
1508.51766,2.04983
1507.48795,2.05368
1506.45825,2.05836
1505.42854,2.05343
1504.39884,2.04993
1503.36913,2.04969
1502.33943,2.04987
1501.30972,2.04945
1500.28002,2.05005
1499.25031,2.05145
1498.22061,2.05100
1497.19090,2.05168
1496.16120,2.05438
1495.13149,2.05385
1494.10179,2.05304
1493.07208,2.05364
1492.04238,2.05557
1491.01267,2.05989
1489.98297,2.06264
1488.95326,2.06197
1487.92356,2.06269
1486.89385,2.06326
1485.86415,2.06344
1484.83444,2.06434
1483.80474,2.06504
1482.77503,2.06564
1481.74533,2.06849
1480.71562,2.07288
1479.68592,2.07427
1478.65621,2.07414
1477.62651,2.07639
1476.59681,2.08201
1475.56710,2.08685
1474.53740,2.08723
1473.50769,2.08588
1472.47799,2.08379
1471.44828,2.07921
1470.41858,2.07398
1469.38887,2.06979
1468.35917,2.06545
1467.32946,2.06118
1466.29976,2.05790
1465.27005,2.05403
1464.24035,2.04864
1463.21064,2.04488
1462.18094,2.04309
1461.15123,2.04280
1460.12153,2.04428
1459.09182,2.04706
1458.06212,2.05086
1457.03241,2.05213
1456.00271,2.04803
1454.97300,2.04525
1453.94330,2.04240
1452.91359,2.03876
1451.88389,2.03655
1450.85418,2.03627
1449.82448,2.03607
1448.79477,2.03532
1447.76507,2.03387
1446.73536,2.03184
1445.70566,2.03044
1444.67595,2.02913
1443.64625,2.02820
1442.61654,2.02830
1441.58684,2.02745
1440.55713,2.02561
1439.52743,2.02445
1438.49772,2.02381
1437.46802,2.02345
1436.43831,2.02317
1435.40861,2.02319
1434.37890,2.02384
1433.34920,2.02435
1432.31950,2.02407
1431.28979,2.02466
1430.26009,2.02714
1429.23038,2.02865
1428.20068,2.02839
1427.17097,2.02809
1426.14127,2.02816
1425.11156,2.02928
1424.08186,2.03090
1423.05215,2.03098
1422.02245,2.02985
1420.99274,2.02930
1419.96304,2.03013
1418.93333,2.03063
1417.90363,2.03176
1416.87392,2.03398
1415.84422,2.03337
1414.81451,2.03103
1413.78481,2.02996
1412.75510,2.02910
1411.72540,2.02728
1410.69569,2.02606
1409.66599,2.02580
1408.63628,2.02633
1407.60658,2.02798
1406.57687,2.02942
1405.54717,2.02998
1404.51746,2.02953
1403.48776,2.02928
1402.45805,2.03105
1401.42835,2.03282
1400.39864,2.03221
1399.36894,2.03019
1398.33923,2.02797
1397.30953,2.02681
1396.27982,2.02752
1395.25012,2.02921
1394.22041,2.02977
1393.19071,2.02873
1392.16100,2.02769
1391.13130,2.02704
1390.10159,2.02617
1389.07189,2.02479
1388.04219,2.02334
1387.01248,2.02248
1385.98278,2.02294
1384.95307,2.02446
1383.92337,2.02603
1382.89366,2.02634
1381.86396,2.02521
1380.83425,2.02385
1379.80455,2.02290
1378.77484,2.02215
1377.74514,2.02175
1376.71543,2.02128
1375.68573,2.02013
1374.65602,2.01884
1373.62632,2.01727
1372.59661,2.01622
1371.56691,2.01735
1370.53720,2.01865
1369.50750,2.01804
1368.47779,2.01633
1367.44809,2.01477
1366.41838,2.01357
1365.38868,2.01233
1364.35897,2.01169
1363.32927,2.01169
1362.29956,2.01091
1361.26986,2.01032
1360.24015,2.01026
1359.21045,2.01058
1358.18074,2.01100
1357.15104,2.01042
1356.12133,2.00990
1355.09163,2.01095
1354.06192,2.01255
1353.03222,2.01297
1352.00251,2.01254
1350.97281,2.01166
1349.94310,2.01074
1348.91340,2.01073
1347.88369,2.01110
1346.85399,2.01187
1345.82428,2.01329
1344.79458,2.01441
1343.76488,2.01454
1342.73517,2.01348
1341.70547,2.01260
1340.67576,2.01317
1339.64606,2.01324
1338.61635,2.01305
1337.58665,2.01464
1336.55694,2.01719
1335.52724,2.01970
1334.49753,2.01982
1333.46783,2.01814
1332.43812,2.01765
1331.40842,2.01732
1330.37871,2.01619
1329.34901,2.01629
1328.31930,2.01829
1327.28960,2.02043
1326.25989,2.02088
1325.23019,2.01992
1324.20048,2.01905
1323.17078,2.01820
1322.14107,2.01728
1321.11137,2.01678
1320.08166,2.01636
1319.05196,2.01610
1318.02225,2.01562
1316.99255,2.01380
1315.96284,2.01217
1314.93314,2.01225
1313.90343,2.01216
1312.87373,2.01165
1311.84402,2.01205
1310.81432,2.01295
1309.78461,2.01426
1308.75491,2.01616
1307.72520,2.01725
1306.69550,2.01597
1305.66579,2.01390
1304.63609,2.01341
1303.60638,2.01461
1302.57668,2.01620
1301.54697,2.01708
1300.51727,2.01784
1299.48756,2.01856
1298.45786,2.01818
1297.42816,2.01802
1296.39845,2.01896
1295.36875,2.01911
1294.33904,2.01784
1293.30934,2.01740
1292.27963,2.01983
1291.24993,2.02230
1290.22022,2.02158
1289.19052,2.01969
1288.16081,2.01929
1287.13111,2.02061
1286.10140,2.02182
1285.07170,2.02145
1284.04199,2.02054
1283.01229,2.01979
1281.98258,2.01885
1280.95288,2.01855
1279.92317,2.01902
1278.89347,2.01868
1277.86376,2.01741
1276.83406,2.01723
1275.80435,2.01821
1274.77465,2.01881
1273.74494,2.01910
1272.71524,2.01896
1271.68553,2.01829
1270.65583,2.01767
1269.62612,2.01619
1268.59642,2.01446
1267.56671,2.01467
1266.53701,2.01544
1265.50730,2.01524
1264.47760,2.01577
1263.44789,2.01696
1262.41819,2.01694
1261.38848,2.01542
1260.35878,2.01382
1259.32907,2.01300
1258.29937,2.01273
1257.26966,2.01296
1256.23996,2.01265
1255.21025,2.01127
1254.18055,2.01024
1253.15085,2.01060
1252.12114,2.01186
1251.09144,2.01253
1250.06173,2.01197
1249.03203,2.01106
1248.00232,2.00970
1246.97262,2.00702
1245.94291,2.00555
1244.91321,2.00764
1243.88350,2.00964
1242.85380,2.00857
1241.82409,2.00595
1240.79439,2.00385
1239.76468,2.00446
1238.73498,2.00714
1237.70527,2.00830
1236.67557,2.00809
1235.64586,2.00859
1234.61616,2.00884
1233.58645,2.00815
1232.55675,2.00680
1231.52704,2.00473
1230.49734,2.00329
1229.46763,2.00350
1228.43793,2.00377
1227.40822,2.00302
1226.37852,2.00340
1225.34881,2.00550
1224.31911,2.00619
1223.28940,2.00517
1222.25970,2.00430
1221.22999,2.00375
1220.20029,2.00411
1219.17058,2.00542
1218.14088,2.00680
1217.11117,2.00659
1216.08147,2.00505
1215.05176,2.00494
1214.02206,2.00620
1212.99235,2.00674
1211.96265,2.00540
1210.93294,2.00385
1209.90324,2.00449
1208.87354,2.00519
1207.84383,2.00446
1206.81413,2.00491
1205.78442,2.00671
1204.75472,2.00721
1203.72501,2.00627
1202.69531,2.00535
1201.66560,2.00504
1200.63590,2.00557
1199.60619,2.00592
1198.57649,2.00528
1197.54678,2.00412
1196.51708,2.00294
1195.48737,2.00212
1194.45767,2.00171
1193.42796,2.00234
1192.39826,2.00391
1191.36855,2.00443
1190.33885,2.00312
1189.30914,2.00157
1188.27944,2.00075
1187.24973,2.00044
1186.22003,2.00075
1185.19032,2.00144
1184.16062,2.00162
1183.13091,2.00099
1182.10121,2.00033
1181.07150,2.00032
1180.04180,2.00069
1179.01209,2.00062
1177.98239,1.99980
1176.95268,1.99908
1175.92298,1.99873
1174.89327,1.99799
1173.86357,1.99674
1172.83386,1.99573
1171.80416,1.99531
1170.77445,1.99540
1169.74475,1.99556
1168.71504,1.99531
1167.68534,1.99541
1166.65563,1.99588
1165.62593,1.99503
1164.59623,1.99420
1163.56652,1.99565
1162.53682,1.99699
1161.50711,1.99636
1160.47741,1.99524
1159.44770,1.99397
1158.41800,1.99283
1157.38829,1.99315
1156.35859,1.99379
1155.32888,1.99311
1154.29918,1.99308
1153.26947,1.99419
1152.23977,1.99404
1151.21006,1.99368
1150.18036,1.99487
1149.15065,1.99706
1148.12095,1.99977
1147.09124,2.00154
1146.06154,2.00122
1145.03183,2.00002
1144.00213,1.99893
1142.97242,1.99785
1141.94272,1.99669
1140.91301,1.99538
1139.88331,1.99398
1138.85360,1.99281
1137.82390,1.99283
1136.79419,1.99337
1135.76449,1.99307
1134.73478,1.99269
1133.70508,1.99206
1132.67537,1.99107
1131.64567,1.99080
1130.61596,1.98998
1129.58626,1.98773
1128.55655,1.98687
1127.52685,1.98797
1126.49714,1.98777
1125.46744,1.98603
1124.43773,1.98345
1123.40803,1.98013
1122.37832,1.97845
1121.34862,1.97895
1120.31891,1.97846
1119.28921,1.97554
1118.25951,1.97313
1117.22980,1.97295
1116.20010,1.97360
1115.17039,1.97367
1114.14069,1.97249
1113.11098,1.97073
1112.08128,1.96962
1111.05157,1.96955
1110.02187,1.96965
1108.99216,1.96868
1107.96246,1.96736
1106.93275,1.96616
1105.90305,1.96485
1104.87334,1.96535
1103.84364,1.96727
1102.81393,1.96758
1101.78423,1.96637
1100.75452,1.96557
1099.72482,1.96571
1098.69511,1.96600
1097.66541,1.96525
1096.63570,1.96334
1095.60600,1.96100
1094.57629,1.95946
1093.54659,1.95975
1092.51688,1.96051
1091.48718,1.96049
1090.45747,1.96026
1089.42777,1.95978
1088.39806,1.95892
1087.36836,1.95790
1086.33865,1.95708
1085.30895,1.95769
1084.27924,1.95925
1083.24954,1.95978
1082.21983,1.95947
1081.19013,1.95885
1080.16042,1.95758
1079.13072,1.95630
1078.10101,1.95557
1077.07131,1.95520
1076.04160,1.95491
1075.01190,1.95409
1073.98220,1.95270
1072.95249,1.95098
1071.92279,1.94960
1070.89308,1.94968
1069.86338,1.95045
1068.83367,1.95128
1067.80397,1.95188
1066.77426,1.95110
1065.74456,1.94927
1064.71485,1.94810
1063.68515,1.94813
1062.65544,1.94814
1061.62574,1.94816
1060.59603,1.94895
1059.56633,1.94934
1058.53662,1.94891
1057.50692,1.94833
1056.47721,1.94625
1055.44751,1.94358
1054.41780,1.94350
1053.38810,1.94456
1052.35839,1.94407
1051.32869,1.94260
1050.29898,1.94126
1049.26928,1.94010
1048.23957,1.93986
1047.20987,1.94084
1046.18016,1.94133
1045.15046,1.94057
1044.12075,1.93937
1043.09105,1.93812
1042.06134,1.93604
1041.03164,1.93335
1040.00193,1.93217
1038.97223,1.93213
1037.94252,1.93184
1036.91282,1.93182
1035.88311,1.93138
1034.85341,1.92950
1033.82370,1.92714
1032.79400,1.92560
1031.76429,1.92558
1030.73459,1.92651
1029.70489,1.92669
1028.67518,1.92553
1027.64548,1.92433
1026.61577,1.92396
1025.58607,1.92384
1024.55636,1.92385
1023.52666,1.92418
1022.49695,1.92488
1021.46725,1.92616
1020.43754,1.92701
1019.40784,1.92589
1018.37813,1.92351
1017.34843,1.92223
1016.31872,1.92215
1015.28902,1.92232
1014.25931,1.92263
1013.22961,1.92291
1012.19990,1.92270
1011.17020,1.92208
1010.14049,1.92200
1009.11079,1.92141
1008.08108,1.92030
1007.05138,1.92101
1006.02167,1.92373
1004.99197,1.92662
1003.96226,1.92748
1002.93256,1.92650
1001.90285,1.92618
1000.87315,1.92580
999.84344,1.92420
998.81374,1.92397
997.78403,1.92523
996.75433,1.92533
995.72462,1.92572
994.69492,1.92759
993.66521,1.92700
992.63551,1.92463
991.60580,1.92495
990.57610,1.92630
989.54639,1.92645
988.51669,1.92654
987.48698,1.92749
986.45728,1.92973
985.42758,1.93191
984.39787,1.93202
983.36817,1.93119
982.33846,1.93056
981.30876,1.93049
980.27905,1.93202
979.24935,1.93395
978.21964,1.93446
977.18994,1.93313
976.16023,1.93099
975.13053,1.93028
974.10082,1.93051
973.07112,1.92979
972.04141,1.92978
971.01171,1.93099
969.98200,1.93094
968.95230,1.93073
967.92259,1.93236
966.89289,1.93404
965.86318,1.93396
964.83348,1.93331
963.80377,1.93269
962.77407,1.93126
961.74436,1.93015
960.71466,1.93084
959.68495,1.93267
958.65525,1.93314
957.62554,1.93080
956.59584,1.92752
955.56613,1.92484
954.53643,1.92374
953.50672,1.92483
952.47702,1.92482
951.44731,1.92274
950.41761,1.92185
949.38790,1.92260
948.35820,1.92375
947.32849,1.92475
946.29879,1.92499
945.26908,1.92431
944.23938,1.92282
943.20967,1.92153
942.17997,1.92146
941.15026,1.92095
940.12056,1.91930
939.09086,1.91970
938.06115,1.92304
937.03145,1.92516
936.00174,1.92399
934.97204,1.92240
933.94233,1.92196
932.91263,1.92102
931.88292,1.91973
930.85322,1.91903
929.82351,1.91775
928.79381,1.91657
927.76410,1.91725
926.73440,1.91855
925.70469,1.91868
924.67499,1.91805
923.64528,1.91801
922.61558,1.91863
921.58587,1.92006
920.55617,1.92195
919.52646,1.92329
918.49676,1.92423
917.46705,1.92450
916.43735,1.92351
915.40764,1.92238
914.37794,1.92225
913.34823,1.92137
912.31853,1.91867
911.28882,1.91658
910.25912,1.91640
909.22941,1.91758
908.19971,1.91933
907.17000,1.92075
906.14030,1.92127
905.11059,1.92094
904.08089,1.92155
903.05118,1.92341
902.02148,1.92478
900.99177,1.92579
899.96207,1.92630
898.93236,1.92566
897.90266,1.92531
896.87295,1.92453
895.84325,1.92252
894.81355,1.92200
893.78384,1.92258
892.75414,1.92239
891.72443,1.92218
890.69473,1.92230
889.66502,1.92269
888.63532,1.92320
887.60561,1.92220
886.57591,1.91976
885.54620,1.91912
884.51650,1.92001
883.48679,1.92056
882.45709,1.92197
881.42738,1.92291
880.39768,1.92148
879.36797,1.92052
878.33827,1.92193
877.30856,1.92285
876.27886,1.92198
875.24915,1.92245
874.21945,1.92554
873.18974,1.92781
872.16004,1.92656
871.13033,1.92417
870.10063,1.92431
869.07092,1.92655
868.04122,1.92726
867.01151,1.92520
865.98181,1.92441
864.95210,1.92602
863.92240,1.92640
862.89269,1.92489
861.86299,1.92307
860.83328,1.92275
859.80358,1.92329
858.77387,1.92243
857.74417,1.91967
856.71446,1.91709
855.68476,1.91807
854.65505,1.92204
853.62535,1.92503
852.59564,1.92491
851.56594,1.92367
850.53624,1.92359
849.50653,1.92398
848.47683,1.92348
847.44712,1.92195
846.41742,1.92011
845.38771,1.92010
844.35801,1.92233
843.32830,1.92292
842.29860,1.92282
841.26889,1.92477
840.23919,1.92637
839.20948,1.92720
838.17978,1.92659
837.15007,1.92407
836.12037,1.92282
835.09066,1.92305
834.06096,1.92269
833.03125,1.92204
832.00155,1.92251
830.97184,1.92284
829.94214,1.92094
828.91243,1.91820
827.88273,1.91809
826.85302,1.91999
825.82332,1.92040
824.79361,1.92045
823.76391,1.92269
822.73420,1.92504
821.70450,1.92480
820.67479,1.92340
819.64509,1.92296
818.61538,1.92335
817.58568,1.92323
816.55597,1.92194
815.52627,1.92180
814.49656,1.92298
813.46686,1.92306
812.43715,1.92356
811.40745,1.92540
810.37774,1.92539
809.34804,1.92408
808.31833,1.92428
807.28863,1.92482
806.25893,1.92495
805.22922,1.92628
804.19952,1.92775
803.16981,1.92586
802.14011,1.92219
801.11040,1.92247
800.08070,1.92638
799.05099,1.92687
798.02129,1.92189
796.99158,1.91815
795.96188,1.91905
794.93217,1.91939
793.90247,1.91744
792.87276,1.91740
791.84306,1.91980
790.81335,1.92091
789.78365,1.91979
788.75394,1.92042
787.72424,1.92212
786.69453,1.92232
785.66483,1.92347
784.63512,1.92590
783.60542,1.92666
782.57571,1.92565
781.54601,1.92554
780.51630,1.92731
779.48660,1.92945
778.45689,1.92739
777.42719,1.92113
776.39748,1.91951
775.36778,1.92413
774.33807,1.92701
773.30837,1.92566
772.27866,1.92378
771.24896,1.92440
770.21925,1.92620
769.18955,1.92595
768.15984,1.92526
767.13014,1.92500
766.10043,1.92274
765.07073,1.92198
764.04102,1.92588
763.01132,1.92826
761.98161,1.92552
760.95191,1.92362
759.92221,1.92527
758.89250,1.92608
757.86280,1.92506
756.83309,1.92467
755.80339,1.92393
754.77368,1.92094
753.74398,1.91817
752.71427,1.91952
751.68457,1.92374
750.65486,1.92742
749.62516,1.92803
748.59545,1.92537
747.56575,1.92312
746.53604,1.92492
745.50634,1.92803
744.47663,1.92790
743.44693,1.92683
742.41722,1.92548
741.38752,1.92212
740.35781,1.92145
739.32811,1.92763
738.29840,1.93429
737.26870,1.93404
736.23899,1.93099
735.20929,1.93142
734.17958,1.93514
733.14988,1.93788
732.12017,1.93659
731.09047,1.93366
730.06076,1.93024
729.03106,1.92557
728.00135,1.92305
726.97165,1.92317
725.94194,1.92419
724.91224,1.92607
723.88253,1.92636
722.85283,1.92331
721.82312,1.91663
720.79342,1.90741
719.76371,1.90061
718.73401,1.89978
717.70430,1.90117
716.67460,1.90350
715.64490,1.90807
714.61519,1.90798
713.58549,1.90463
712.55578,1.90736
711.52608,1.91235
710.49637,1.91261
709.46667,1.91119
708.43696,1.91138
707.40726,1.91149
706.37755,1.90922
705.34785,1.90333
704.31814,1.89888
703.28844,1.90137
702.25873,1.90796
701.22903,1.91214
700.19932,1.90969
699.16962,1.90526
698.13991,1.90597
697.11021,1.90811
696.08050,1.90700
695.05080,1.90512
694.02109,1.90488
692.99139,1.90718
691.96168,1.91103
690.93198,1.91354
689.90227,1.91544
688.87257,1.91769
687.84286,1.91811
686.81316,1.91377
685.78345,1.90737
684.75375,1.90614
683.72404,1.90768
682.69434,1.90905
681.66463,1.91245
680.63493,1.91440
679.60522,1.91066
678.57552,1.90442
677.54581,1.90353
676.51611,1.90782
675.48640,1.91006
674.45670,1.90894
673.42699,1.90990
672.39729,1.91162
671.36759,1.90631
670.33788,1.89803
669.30818,1.89542
668.27847,1.90382
667.24877,1.90794
666.21906,1.90166
665.18936,1.89857
664.15965,1.89638
663.12995,1.89428
662.10024,1.89755
661.07054,1.90344
660.04083,1.90234
659.01113,1.89843
657.98142,1.89836
656.95172,1.89828
655.92201,1.89664
654.89231,1.89187
653.86260,1.88633
652.83290,1.88699
651.80319,1.89564
650.77349,1.90316
649.74378,1.90377
648.71408,1.90278
647.68437,1.89829
646.65467,1.89028
645.62496,1.88677
644.59526,1.88815
643.56555,1.89161
642.53585,1.89850
641.50614,1.90544
640.47644,1.90219
639.44673,1.89395
638.41703,1.89799
637.38732,1.90837
636.35762,1.90608
635.32791,1.89157
634.29821,1.88369
633.26850,1.88824
632.23880,1.89286
631.20909,1.89310
630.17939,1.89353
629.14968,1.89194
628.11998,1.88800
627.09028,1.88817
626.06057,1.89093
625.03087,1.88941
624.00116,1.88495
622.97146,1.87761
621.94175,1.87540
620.91205,1.88528
619.88234,1.89105
618.85264,1.88473
617.82293,1.88664
616.79323,1.90177
615.76352,1.90233
614.73382,1.88375
613.70411,1.87140
612.67441,1.87140
611.64470,1.87371
610.61500,1.87138
609.58529,1.86411
608.55559,1.85869
607.52588,1.85944
606.49618,1.86528
605.46647,1.86674
604.43677,1.85774
603.40706,1.85352
602.37736,1.85736
601.34765,1.85343
600.31795,1.84389
599.28824,1.84250
